time,emg1,emg2,label
1776066720.752373,10,16,1
1776066720.752854,14,18,1
1776066720.7568786,16,24,1
1776066720.7576993,18,24,1
1776066720.759707,20,28,1
1776066720.762121,20,28,1
1776066720.762121,20,30,1
1776066720.7652094,20,30,1
1776066720.7652094,22,30,1
1776066720.87461,22,32,1
1776066720.87461,22,34,1
1776066720.87461,24,34,1
1776066720.87461,24,36,1
1776066720.87461,24,36,1
1776066720.87461,24,38,1
1776066720.87461,24,40,1
1776066720.87461,24,42,1
1776066720.87461,26,44,1
1776066720.87461,26,46,1
1776066720.87461,26,46,1
1776066720.87461,26,46,1
1776066720.87461,26,46,1
1776066720.87461,26,48,1
1776066720.87461,26,48,1
1776066720.87461,26,50,1
1776066720.87461,28,50,1
1776066720.87461,28,52,1
1776066720.87461,28,54,1
1776066720.87461,28,56,1
1776066720.87461,28,56,1
1776066720.87461,28,56,1
1776066720.87461,28,56,1
1776066720.8902354,28,58,1
1776066720.8915653,28,58,1
1776066720.8915653,28,58,1
1776066720.8926888,30,60,1
1776066720.893338,30,62,1
1776066720.893338,30,64,1
1776066720.893338,30,66,1
1776066720.8954096,30,66,1
1776066720.8968258,32,66,1
1776066720.8968258,32,66,1
1776066720.897411,32,70,1
1776066720.897411,32,70,1
1776066720.8984182,32,74,1
1776066720.8984182,32,74,1
1776066720.9012847,32,78,1
1776066720.9032915,34,78,1
1776066720.9056206,34,80,1
1776066720.906744,34,80,1
1776066720.906744,34,82,1
1776066720.906744,34,84,1
1776066720.9087522,34,86,1
1776066720.9092462,36,90,1
1776066720.9092462,36,90,1
1776066720.9092462,36,92,1
1776066720.9092462,36,94,1
1776066720.9092462,36,96,1
1776066720.9092462,36,96,1
1776066720.9092462,36,100,1
1776066720.9092462,34,100,1
1776066720.9112523,32,98,1
1776066720.9112523,32,102,1
1776066720.9112523,28,98,1
1776066720.9112523,26,96,1
1776066720.9112523,22,94,1
1776066720.9112523,20,94,1
1776066720.9112523,18,94,1
1776066720.9112523,18,96,1
1776066720.9112523,18,98,1
1776066720.9137707,18,96,1
1776066720.9137707,18,98,1
1776066720.9137707,16,100,1
1776066720.9137707,16,100,1
1776066720.915442,16,102,1
1776066720.915442,16,102,1
1776066720.915442,16,102,1
1776066720.915442,16,102,1
1776066720.915442,16,104,1
1776066720.915442,16,104,1
1776066720.915442,16,102,1
1776066720.915442,14,100,1
1776066720.915442,16,100,1
1776066720.915442,14,100,1
1776066720.919806,16,102,1
1776066720.9218173,16,102,1
1776066720.9235637,16,104,1
1776066720.9255724,16,104,1
1776066720.9255724,16,106,1
1776066720.929371,16,108,1
1776066720.933387,16,106,1
1776066720.933387,14,108,1
1776066720.938468,14,108,1
1776066720.939978,14,110,1
1776066720.9418502,16,114,1
1776066720.9418502,16,114,1
1776066720.9438696,16,118,1
1776066720.9481506,16,120,1
1776066720.9499032,16,122,1
1776066720.9499032,16,122,1
1776066720.9550302,16,120,1
1776066720.9562445,16,118,1
1776066720.9567685,16,120,1
1776066720.9591992,16,122,1
1776066720.9612076,16,122,1
1776066720.9621835,16,122,1
1776066720.9621835,16,122,1
1776066720.9621835,16,120,1
1776066720.9722295,16,122,1
1776066720.9742393,16,122,1
1776066720.9750402,16,120,1
1776066720.9750402,16,120,1
1776066720.977048,16,122,1
1776066720.977048,18,120,1
1776066720.9814918,18,122,1
1776066720.9814918,18,122,1
1776066720.9814918,18,122,1
1776066720.9900506,18,122,1
1776066720.9905727,18,122,1
1776066720.9916728,18,122,1
1776066720.993198,18,122,1
1776066720.993198,18,120,1
1776066720.9964366,18,122,1
1776066720.9964366,18,120,1
1776066720.9964366,18,118,1
1776066721.0091293,20,116,1
1776066721.0091293,20,114,1
1776066721.0101361,20,114,1
1776066721.0101361,20,112,1
1776066721.0106666,20,112,1
1776066721.0106666,20,106,1
1776066721.0106666,20,106,1
1776066721.0164087,22,104,1
1776066721.0253317,22,102,1
1776066721.0253317,22,104,1
1776066721.0253317,24,102,1
1776066721.0265326,24,102,1
1776066721.0265326,24,102,1
1776066721.0286958,24,102,1
1776066721.0286958,24,102,1
1776066721.0325358,24,100,1
1776066721.0346153,24,100,1
1776066721.0408652,24,98,1
1776066721.0408652,24,98,1
1776066721.0408652,24,98,1
1776066721.0426242,24,98,1
1776066721.0426242,24,98,1
1776066721.0426242,24,96,1
1776066721.048306,24,96,1
1776066721.050852,24,96,1
1776066721.057373,24,94,1
1776066721.057373,24,94,1
1776066721.057373,24,92,1
1776066721.058711,24,92,1
1776066721.0601594,24,92,1
1776066721.063493,24,88,1
1776066721.0654225,24,88,1
1776066721.0671892,24,86,1
1776066721.071784,24,84,1
1776066721.071784,24,84,1
1776066721.0737922,24,80,1
1776066721.0737922,24,80,1
1776066721.0764847,24,80,1
1776066721.0764847,24,78,1
1776066721.0764847,24,80,1
1776066721.0818636,24,80,1
1776066721.0838747,24,80,1
1776066721.085779,24,78,1
1776066721.0883908,24,78,1
1776066721.0883908,24,78,1
1776066721.0930274,24,78,1
1776066721.0930274,22,78,1
1776066721.0930274,22,78,1
1776066721.0930274,24,76,1
1776066721.1003172,24,80,1
1776066721.1028035,24,78,1
1776066721.1034195,24,78,1
1776066721.1034195,24,80,1
1776066721.1086104,24,78,1
1776066721.1092181,24,78,1
1776066721.1092181,22,76,1
1776066721.1092181,22,76,1
1776066721.1168628,22,76,1
1776066721.1186156,24,74,1
1776066721.1209626,24,76,1
1776066721.1209626,24,76,1
1776066721.1248682,24,78,1
1776066721.1268682,24,78,1
1776066721.1268682,24,80,1
1776066721.1268682,22,80,1
1776066721.1328912,22,80,1
1776066721.1348937,22,78,1
1776066721.1374285,22,80,1
1776066721.1374285,22,80,1
1776066721.1408923,22,82,1
1776066721.1428924,22,84,1
1776066721.1428924,22,84,1
1776066721.1468918,22,84,1
1776066721.1489236,22,84,1
1776066721.1502886,22,84,1
1776066721.1502886,22,82,1
1776066721.1564476,22,82,1
1776066721.1567762,22,80,1
1776066721.1590981,22,82,1
1776066721.1590981,20,84,1
1776066721.162719,22,84,1
1776066721.1651022,20,86,1
1776066721.165486,22,86,1
1776066721.174057,22,90,1
1776066721.174057,22,90,1
1776066721.174057,22,90,1
1776066721.174057,22,92,1
1776066721.174057,22,92,1
1776066721.174057,22,94,1
1776066721.1807811,22,96,1
1776066721.1831918,22,98,1
1776066721.1831918,22,100,1
1776066721.1878421,22,98,1
1776066721.1896737,24,100,1
1776066721.1912396,24,102,1
1776066721.1930692,24,100,1
1776066721.1930692,24,100,1
1776066721.1968665,24,100,1
1776066721.1993182,24,100,1
1776066721.1993182,24,102,1
1776066721.1993182,24,102,1
1776066721.2042634,24,102,1
1776066721.207057,24,102,1
1776066721.2093942,24,102,1
1776066721.2093942,24,102,1
1776066721.213106,24,100,1
1776066721.2154334,24,100,1
1776066721.217097,24,102,1
1776066721.2186618,24,102,1
1776066721.2186618,24,104,1
1776066721.223422,24,104,1
1776066721.2254848,24,106,1
1776066721.2274363,24,106,1
1776066721.2274363,26,108,1
1776066721.2312887,24,106,1
1776066721.2334173,24,104,1
1776066721.235122,24,104,1
1776066721.2369058,24,102,1
1776066721.239364,24,102,1
1776066721.2411137,24,104,1
1776066721.2431464,24,102,1
1776066721.2450867,24,102,1
1776066721.2473814,24,102,1
1776066721.2491465,24,102,1
1776066721.2491465,24,102,1
1776066721.2491465,24,100,1
1776066721.2559428,24,100,1
1776066721.2579505,24,100,1
1776066721.2590199,24,100,1
1776066721.2594068,24,104,1
1776066721.2634332,24,104,1
1776066721.2653658,24,104,1
1776066721.2657986,26,106,1
1776066721.2693706,26,104,1
1776066721.2712162,26,104,1
1776066721.2735786,26,102,1
1776066721.2754529,26,100,1
1776066721.2765763,26,100,1
1776066721.2783754,24,102,1
1776066721.281447,24,102,1
1776066721.2835517,24,104,1
1776066721.2853975,24,104,1
1776066721.2874794,24,104,1
1776066721.2894533,24,104,1
1776066721.2894533,24,104,1
1776066721.2935278,24,100,1
1776066721.29546,24,100,1
1776066721.296781,24,98,1
1776066721.296781,24,98,1
1776066721.3026745,24,100,1
1776066721.304683,24,98,1
1776066721.304683,24,100,1
1776066721.304683,24,100,1
1776066721.304683,24,98,1
1776066721.304683,24,98,1
1776066721.313326,22,96,1
1776066721.315265,22,96,1
1776066721.3167772,22,96,1
1776066721.3167772,22,96,1
1776066721.3230014,22,100,1
1776066721.323998,20,100,1
1776066721.3252006,20,100,1
1776066721.3272815,22,102,1
1776066721.3290024,22,102,1
1776066721.3315077,22,102,1
1776066721.3335114,22,100,1
1776066721.3370264,22,100,1
1776066721.3370264,22,100,1
1776066721.3386931,22,100,1
1776066721.341507,22,104,1
1776066721.343284,22,102,1
1776066721.3444524,22,102,1
1776066721.3444524,20,102,1
1776066721.3444524,20,100,1
1776066721.3515887,20,100,1
1776066721.3536434,20,96,1
1776066721.3553956,20,96,1
1776066721.3553956,20,96,1
1776066721.3589835,20,96,1
1776066721.36094,20,96,1
1776066721.363486,20,98,1
1776066721.36486,20,98,1
1776066721.3673058,20,100,1
1776066721.3694053,20,100,1
1776066721.371415,20,102,1
1776066721.3725379,20,100,1
1776066721.3755126,20,100,1
1776066721.3773508,20,100,1
1776066721.3787513,20,100,1
1776066721.3787513,22,102,1
1776066721.3828108,22,102,1
1776066721.3828108,22,102,1
1776066721.3870454,22,102,1
1776066721.3890562,22,100,1
1776066721.391069,22,102,1
1776066721.391069,20,100,1
1776066721.391069,20,100,1
1776066721.391069,20,102,1
1776066721.3993187,20,100,1
1776066721.3993187,20,102,1
1776066721.4037435,20,104,1
1776066721.4037435,20,104,1
1776066721.4076657,20,106,1
1776066721.4097598,20,106,1
1776066721.4107366,20,106,1
1776066721.4107366,20,104,1
1776066721.4107366,20,102,1
1776066721.4157553,20,102,1
1776066721.4157553,22,102,1
1776066721.4218707,22,104,1
1776066721.4218707,22,104,1
1776066721.4249475,22,106,1
1776066721.4249475,24,106,1
1776066721.4297316,24,106,1
1776066721.431678,22,108,1
1776066721.4327734,22,104,1
1776066721.4354436,24,106,1
1776066721.437497,24,106,1
1776066721.4394557,24,104,1
1776066721.4404452,24,106,1
1776066721.4404452,24,106,1
1776066721.4404452,24,106,1
1776066721.4479992,24,104,1
1776066721.4495957,24,104,1
1776066721.4510238,24,104,1
1776066721.4542115,24,100,1
1776066721.4542115,24,100,1
1776066721.4577694,24,100,1
1776066721.4594917,24,98,1
1776066721.4594917,24,100,1
1776066721.4637904,24,102,1
1776066721.465834,24,100,1
1776066721.465834,24,102,1
1776066721.4719102,24,100,1
1776066721.4719102,24,100,1
1776066721.4737363,24,98,1
1776066721.4750206,24,98,1
1776066721.4750206,24,100,1
1776066721.47959,24,100,1
1776066721.481768,24,102,1
1776066721.4830215,24,100,1
1776066721.4830215,24,100,1
1776066721.4887495,24,100,1
1776066721.4898107,24,100,1
1776066721.4917986,24,100,1
1776066721.4917986,24,98,1
1776066721.4954474,24,98,1
1776066721.497559,24,100,1
1776066721.4991238,26,98,1
1776066721.5016668,26,102,1
1776066721.5016668,26,100,1
1776066721.5055506,26,100,1
1776066721.5076008,28,100,1
1776066721.5097954,28,98,1
1776066721.5111332,28,98,1
1776066721.5125704,28,94,1
1776066721.515749,26,94,1
1776066721.517115,26,94,1
1776066721.518446,26,92,1
1776066721.5215347,26,94,1
1776066721.523699,28,94,1
1776066721.5249603,26,92,1
1776066721.5277011,28,94,1
1776066721.529637,28,96,1
1776066721.530927,28,96,1
1776066721.530927,28,96,1
1776066721.5350435,28,94,1
1776066721.5373616,28,92,1
1776066721.5377924,28,92,1
1776066721.5416996,28,92,1
1776066721.5436552,28,94,1
1776066721.5449362,28,94,1
1776066721.5449362,28,98,1
1776066721.549684,28,98,1
1776066721.5516365,26,96,1
1776066721.5537841,26,92,1
1776066721.5537841,26,92,1
1776066721.5577512,26,92,1
1776066721.5591414,26,90,1
1776066721.5607996,26,94,1
1776066721.5637069,26,94,1
1776066721.5649521,26,94,1
1776066721.5649521,26,96,1
1776066721.569603,26,96,1
1776066721.5712795,26,96,1
1776066721.5729551,26,94,1
1776066721.5729551,26,94,1
1776066721.5777252,26,92,1
1776066721.5798068,26,94,1
1776066721.5812044,26,94,1
1776066721.5837128,26,96,1
1776066721.5851977,26,96,1
1776066721.5851977,28,100,1
1776066721.5900164,28,100,1
1776066721.5900164,30,100,1
1776066721.5936005,30,98,1
1776066721.5936005,30,96,1
1776066721.5972486,30,96,1
1776066721.5972486,30,96,1
1776066721.6017513,30,98,1
1776066721.6070592,30,100,1
1776066721.6070592,30,98,1
1776066721.6070592,30,100,1
1776066721.609867,30,100,1
1776066721.609867,30,100,1
1776066721.613832,30,98,1
1776066721.613832,30,98,1
1776066721.613832,30,100,1
1776066721.6193185,30,98,1
1776066721.6240296,30,100,1
1776066721.6240296,30,102,1
1776066721.6260376,30,100,1
1776066721.6260376,30,102,1
1776066721.6326034,30,102,1
1776066721.6326034,28,102,1
1776066721.6326034,28,100,1
1776066721.641597,28,98,1
1776066721.6426425,26,98,1
1776066721.6426425,26,98,1
1776066721.6426425,26,98,1
1776066721.6426425,28,102,1
1776066721.6446505,28,100,1
1776066721.6479945,28,104,1
1776066721.6479945,28,104,1
1776066721.6569502,28,102,1
1776066721.6569502,28,100,1
1776066721.6569502,28,98,1
1776066721.6589627,26,98,1
1776066721.6589627,26,98,1
1776066721.6589627,26,98,1
1776066721.67233,26,100,1
1776066721.6733224,26,102,1
1776066721.6753294,26,102,1
1776066721.6804545,24,104,1
1776066721.6829896,24,100,1
1776066721.6829896,24,100,1
1776066721.6829896,24,98,1
1776066721.6829896,24,98,1
1776066721.6909268,24,98,1
1776066721.6909268,24,100,1
1776066721.6935556,24,102,1
1776066721.6957977,24,102,1
1776066721.697704,24,104,1
1776066721.6991706,24,104,1
1776066721.7055,22,102,1
1776066721.7069116,22,100,1
1776066721.7077627,22,100,1
1776066721.7077627,24,98,1
1776066721.7077627,24,100,1
1776066721.7097695,24,102,1
1776066721.7097695,24,102,1
1776066721.7097695,24,104,1
1776066721.7117763,26,106,1
1776066721.7132196,24,106,1
1776066721.7139761,24,104,1
1776066721.7159822,24,102,1
1776066721.7208064,24,100,1
1776066721.723619,22,102,1
1776066721.723619,22,102,1
1776066721.723619,22,104,1
1776066721.7256386,22,106,1
1776066721.7256386,22,106,1
1776066721.7262914,22,110,1
1776066721.7303565,22,110,1
1776066721.732036,22,108,1
1776066721.7333043,22,106,1
1776066721.736334,22,106,1
1776066721.739596,22,106,1
1776066721.7399406,22,106,1
1776066721.7399406,22,108,1
1776066721.7399406,22,110,1
1776066721.745962,22,112,1
1776066721.7479687,22,114,1
1776066721.7479687,22,114,1
1776066721.7556741,22,112,1
1776066721.7561188,22,110,1
1776066721.7561188,22,108,1
1776066721.7561188,22,110,1
1776066721.7561188,22,110,1
1776066721.7604477,22,112,1
1776066721.764441,22,114,1
1776066721.764441,22,116,1
1776066721.7664473,22,118,1
1776066721.7699647,22,120,1
1776066721.7735279,24,118,1
1776066721.7735279,22,118,1
1776066721.7760608,22,114,1
1776066721.7760608,22,114,1
1776066721.7795575,22,114,1
1776066721.781563,22,116,1
1776066721.781563,22,118,1
1776066721.781563,22,116,1
1776066721.788103,22,118,1
1776066721.7903671,22,118,1
1776066721.7919383,22,116,1
1776066721.7939713,22,114,1
1776066721.7963707,22,112,1
1776066721.7969708,22,114,1
1776066721.7982488,22,114,1
1776066721.7982488,22,114,1
1776066721.805353,22,116,1
1776066721.8060613,24,114,1
1776066721.8079622,24,116,1
1776066721.8092635,24,116,1
1776066721.8092635,24,114,1
1776066721.813809,24,110,1
1776066721.813809,24,108,1
1776066721.813809,24,108,1
1776066721.8228157,24,108,1
1776066721.8228157,24,110,1
1776066721.8228157,24,110,1
1776066721.8257563,24,110,1
1776066721.8257563,22,112,1
1776066721.830062,22,112,1
1776066721.8304894,22,112,1
1776066721.8304894,20,108,1
1776066721.8304894,20,106,1
1776066721.8395538,20,106,1
1776066721.8395538,20,106,1
1776066721.8420374,20,108,1
1776066721.8420374,20,110,1
1776066721.8456995,20,108,1
1776066721.8477066,20,110,1
1776066721.8477066,20,108,1
1776066721.8477066,20,106,1
1776066721.8541186,20,104,1
1776066721.8554235,20,102,1
1776066721.8554235,18,102,1
1776066721.8554235,18,102,1
1776066721.8617504,18,104,1
1776066721.8634906,20,106,1
1776066721.8634906,20,106,1
1776066721.8634906,20,108,1
1776066721.8725235,20,108,1
1776066721.8725235,20,106,1
1776066721.8725235,20,104,1
1776066721.8725235,18,100,1
1776066721.8725235,18,100,1
1776066721.879747,18,100,1
1776066721.879747,18,102,1
1776066721.879747,18,102,1
1776066721.8873763,18,102,1
1776066721.8900332,20,102,1
1776066721.8904295,20,102,1
1776066721.8904295,20,100,1
1776066721.8904295,20,98,1
1776066721.8955538,20,96,1
1776066721.897002,20,94,1
1776066721.897002,18,96,1
1776066721.897002,18,96,1
1776066721.903618,18,100,1
1776066721.9058025,18,100,1
1776066721.9081812,20,102,1
1776066721.9094982,20,102,1
1776066721.9143949,20,102,1
1776066721.9143949,20,100,1
1776066721.9143949,20,98,1
1776066721.9143949,20,98,1
1776066721.9202003,20,98,1
1776066721.9222357,20,100,1
1776066721.9241998,20,100,1
1776066721.9255166,20,100,1
1776066721.9276686,20,100,1
1776066721.9302323,20,98,1
1776066721.9320974,20,98,1
1776066721.9320974,20,98,1
1776066721.9390936,20,98,1
1776066721.9390936,20,98,1
1776066721.9390936,20,100,1
1776066721.9421957,18,102,1
1776066721.9441328,18,104,1
1776066721.9462492,18,102,1
1776066721.9485188,18,104,1
1776066721.9503422,20,104,1
1776066721.9523616,20,102,1
1776066721.9552925,20,100,1
1776066721.9565082,20,98,1
1776066721.9584029,20,98,1
1776066721.9588008,20,98,1
1776066721.9619231,20,100,1
1776066721.9619231,20,102,1
1776066721.9619231,20,102,1
1776066721.968837,20,104,1
1776066721.9710174,20,104,1
1776066721.9730322,20,104,1
1776066721.9730322,20,102,1
1776066721.9764411,20,100,1
1776066721.9785426,20,100,1
1776066721.9793441,20,100,1
1776066721.9793441,20,100,1
1776066721.9793441,20,102,1
1776066721.9853232,20,100,1
1776066721.9886923,20,102,1
1776066721.9904056,20,102,1
1776066721.9923244,18,100,1
1776066721.9943707,18,98,1
1776066721.9963865,18,96,1
1776066721.9967706,18,96,1
1776066722.0004194,18,96,1
1776066722.001964,18,98,1
1776066722.0040264,18,96,1
1776066722.0046628,18,96,1
1776066722.0084727,18,96,1
1776066722.010431,18,96,1
1776066722.0118692,18,96,1
1776066722.0142825,18,96,1
1776066722.0159278,18,94,1
1776066722.0159278,16,94,1
1776066722.023225,16,96,1
1776066722.023225,16,98,1
1776066722.023225,18,100,1
1776066722.0247083,18,104,1
1776066722.0278678,18,104,1
1776066722.0304403,18,106,1
1776066722.0326436,18,104,1
1776066722.0326436,18,102,1
1776066722.0326436,18,100,1
1776066722.0385559,18,102,1
1776066722.0404034,18,102,1
1776066722.0410874,18,106,1
1776066722.0445695,18,106,1
1776066722.044979,18,106,1
1776066722.04858,16,106,1
1776066722.05067,16,108,1
1776066722.0519173,16,108,1
1776066722.0546677,16,106,1
1776066722.0566545,16,108,1
1776066722.0587692,16,108,1
1776066722.0605185,16,108,1
1776066722.0605185,16,108,1
1776066722.0642772,18,108,1
1776066722.0666754,18,108,1
1776066722.0672474,18,108,1
1776066722.0711455,18,108,1
1776066722.0902884,18,108,1
1776066722.111291,18,106,1
1776066722.1338944,18,106,1
1776066722.202113,18,104,1
1776066722.2312076,18,104,1
1776066722.2437048,18,106,1
1776066722.248752,18,106,1
1776066722.2545917,18,104,1
1776066722.2555768,18,106,1
1776066722.2575874,18,106,1
1776066722.2588823,18,104,1
1776066722.2588823,18,102,1
1776066722.2602384,18,102,1
1776066722.2602384,18,102,1
1776066722.2631881,18,104,1
1776066722.2631881,18,106,1
1776066722.2631881,18,108,1
1776066722.2651956,18,110,1
1776066722.2651956,18,110,1
1776066722.2651956,18,112,1
1776066722.2651956,18,112,1
1776066722.2651956,18,112,1
1776066722.2651956,16,112,1
1776066722.2651956,16,112,1
1776066722.2651956,16,114,1
1776066722.2651956,16,116,1
1776066722.2651956,16,118,1
1776066722.2651956,18,116,1
1776066722.2651956,18,120,1
1776066722.2713716,18,118,1
1776066722.2713716,18,118,1
1776066722.2713716,18,118,1
1776066722.2713716,18,118,1
1776066722.2713716,18,118,1
1776066722.2713716,18,118,1
1776066722.2713716,18,118,1
1776066722.2713716,18,118,1
1776066722.2713716,18,116,1
1776066722.2713716,18,118,1
1776066722.2713716,18,116,1
1776066722.2713716,16,114,1
1776066722.2765949,16,110,1
1776066722.277154,16,110,1
1776066722.277154,16,108,1
1776066722.277154,16,110,1
1776066722.277154,16,110,1
1776066722.277154,16,112,1
1776066722.277154,14,110,1
1776066722.277154,14,114,1
1776066722.2796311,14,112,1
1776066722.2796311,14,112,1
1776066722.2796311,14,110,1
1776066722.2796311,14,110,1
1776066722.2796311,14,108,1
1776066722.281537,14,108,1
1776066722.281537,14,108,1
1776066722.281537,14,108,1
1776066722.281537,16,106,1
1776066722.281537,14,108,1
1776066722.281537,16,108,1
1776066722.281537,14,108,1
1776066722.281537,14,106,1
1776066722.281537,14,106,1
1776066722.281537,14,104,1
1776066722.281537,14,106,1
1776066722.281537,14,106,1
1776066722.281537,14,108,1
1776066722.281537,14,108,1
1776066722.281537,14,110,1
1776066722.281537,14,112,1
1776066722.2882018,14,110,1
1776066722.2882018,16,110,1
1776066722.2882018,14,108,1
1776066722.2882018,16,106,1
1776066722.2882018,16,108,1
1776066722.2882018,16,106,1
1776066722.2882018,14,108,1
1776066722.2909546,16,106,1
1776066722.2909546,16,108,1
1776066722.2909546,16,106,1
1776066722.2909546,16,106,1
1776066722.2909546,16,102,1
1776066722.2909546,16,102,1
1776066722.2909546,16,100,1
1776066722.2909546,16,100,1
1776066722.2934895,16,100,1
1776066722.2934895,16,100,1
1776066722.2943814,16,100,1
1776066722.2943814,16,100,1
1776066722.2943814,16,102,1
1776066722.2943814,16,100,1
1776066722.2943814,14,100,1
1776066722.2943814,14,100,1
1776066722.2959754,14,100,1
1776066722.2959754,14,100,1
1776066722.2959754,14,100,1
1776066722.2959754,14,102,1
1776066722.2959754,14,100,1
1776066722.2959754,14,102,1
1776066722.2959754,14,102,1
1776066722.2959754,14,100,1
1776066722.2986934,14,100,1
1776066722.2986934,14,98,1
1776066722.2986934,14,98,1
1776066722.2986934,14,100,1
1776066722.2986934,14,102,1
1776066722.2986934,16,102,1
1776066722.2986934,16,104,1
1776066722.2986934,16,104,1
1776066722.2986934,16,104,1
1776066722.2986934,16,102,1
1776066722.3018632,16,100,1
1776066722.3018632,16,96,1
1776066722.3018632,16,96,1
1776066722.3032312,16,96,1
1776066722.3050473,16,96,1
1776066722.342883,16,98,1
1776066722.3612585,16,98,1
1776066722.3652759,16,100,1
1776066722.3846867,16,102,1
1776066722.3956041,16,100,1
1776066722.3976688,16,100,1
1776066722.3976688,16,98,1
1776066722.3976688,16,98,1
1776066722.3976688,14,98,1
1776066722.3976688,16,100,1
1776066722.3996775,16,100,1
1776066722.3996775,16,98,1
1776066722.3996775,16,100,1
1776066722.3996775,18,98,1
1776066722.4018495,18,96,1
1776066722.4057026,18,94,1
1776066722.4057026,18,92,1
1776066722.4057026,18,92,1
1776066722.4057026,18,94,1
1776066722.4057026,18,94,1
1776066722.4057026,18,96,1
1776066722.4057026,18,98,1
1776066722.4057026,18,98,1
1776066722.4057026,18,100,1
1776066722.4057026,18,98,1
1776066722.4057026,18,98,1
1776066722.4057026,18,98,1
1776066722.4141953,18,98,1
1776066722.4141953,18,100,1
1776066722.4141953,18,102,1
1776066722.4162972,18,104,1
1776066722.4162972,20,104,1
1776066722.4162972,20,106,1
1776066722.4162972,20,108,1
1776066722.4221442,20,106,1
1776066722.4241512,18,104,1
1776066722.4241512,18,102,1
1776066722.4241512,20,102,1
1776066722.4241512,20,102,1
1776066722.4261582,20,102,1
1776066722.4261582,20,102,1
1776066722.4261582,20,102,1
1776066722.4261582,20,104,1
1776066722.4298186,20,104,1
1776066722.4298186,20,104,1
1776066722.4298186,20,104,1
1776066722.4298186,20,102,1
1776066722.4298186,20,102,1
1776066722.4298186,20,102,1
1776066722.4298186,22,102,1
1776066722.4298186,22,102,1
1776066722.4298186,22,100,1
1776066722.4298186,22,100,1
1776066722.4298186,24,102,1
1776066722.4298186,22,98,1
1776066722.4298186,22,98,1
1776066722.4298186,22,98,1
1776066722.4298186,22,96,1
1776066722.4341872,22,98,1
1776066722.4341872,22,98,1
1776066722.437604,22,100,1
1776066722.437604,22,98,1
1776066722.437604,22,100,1
1776066722.437604,24,100,1
1776066722.437604,22,100,1
1776066722.437604,24,98,1
1776066722.437604,24,98,1
1776066722.437604,24,96,1
1776066722.437604,24,96,1
1776066722.4423587,24,96,1
1776066722.4423587,24,96,1
1776066722.4423587,24,96,1
1776066722.4423587,24,98,1
1776066722.4504523,22,98,1
1776066722.4531455,22,96,1
1776066722.4549088,22,96,1
1776066722.4569077,22,94,1
1776066722.458313,20,96,1
1776066722.458313,20,96,1
1776066722.4629307,20,96,1
1776066722.4649224,20,94,1
1776066722.4666674,20,94,1
1776066722.4666674,20,92,1
1776066722.470937,20,92,1
1776066722.472206,20,90,1
1776066722.4749372,20,88,1
1776066722.4763377,20,88,1
1776066722.478933,20,86,1
1776066722.478933,20,86,1
1776066722.482455,20,88,1
1776066722.482455,20,86,1
1776066722.487563,20,86,1
1776066722.4879227,20,84,1
1776066722.4905097,20,86,1
1776066722.4905097,20,82,1
1776066722.4949555,18,82,1
1776066722.4969332,20,82,1
1776066722.4983625,18,80,1
1776066722.4983625,20,82,1
1776066722.4983625,20,84,1
1776066722.5050952,20,84,1
1776066722.5063763,20,84,1
1776066722.5063763,18,84,1
1776066722.5110595,20,84,1
1776066722.5132556,18,82,1
1776066722.5145342,18,82,1
1776066722.5145342,20,80,1
1776066722.5145342,20,80,1
1776066722.5207675,20,78,1
1776066722.5230637,18,78,1
1776066722.5230637,18,78,1
1776066722.527236,18,80,1
1776066722.5292459,18,82,1
1776066722.5305438,18,82,1
1776066722.5305438,18,80,1
1776066722.5349865,18,80,1
1776066722.5369356,18,78,1
1776066722.53875,18,76,1
1776066722.53875,18,78,1
1776066722.543246,20,76,1
1776066722.545418,20,76,1
1776066722.5465438,20,76,1
1776066722.549367,20,76,1
1776066722.5513048,20,74,1
1776066722.551598,20,72,1
1776066722.554231,20,72,1
1776066722.5569232,20,72,1
1776066722.559293,20,72,1
1776066722.560732,20,72,1
1776066722.560732,20,72,1
1776066722.5652432,20,72,1
1776066722.5673447,20,72,1
1776066722.568379,20,74,1
1776066722.5708568,20,74,1
1776066722.5708568,20,72,1
1776066722.5751278,20,72,1
1776066722.576762,20,70,1
1776066722.576762,20,70,1
1776066722.5812392,20,70,1
1776066722.5833068,20,70,1
1776066722.584804,20,72,1
1776066722.5871735,20,72,1
1776066722.5895827,20,72,1
1776066722.5914109,20,74,1
1776066722.5927644,20,74,1
1776066722.5950649,20,74,1
1776066722.59736,22,76,1
1776066722.5987964,20,76,1
1776066722.601116,20,80,1
1776066722.603732,20,78,1
1776066722.603732,20,82,1
1776066722.606865,20,80,1
1776066722.6092029,20,80,1
1776066722.611357,22,80,1
1776066722.612821,22,78,1
1776066722.6150916,22,78,1
1776066722.6173522,22,80,1
1776066722.6185818,22,80,1
1776066722.620903,22,80,1
1776066722.623513,22,80,1
1776066722.6253626,22,80,1
1776066722.6268797,22,78,1
1776066722.6268797,22,80,1
1776066722.6312673,22,78,1
1776066722.633373,22,78,1
1776066722.6348462,22,76,1
1776066722.6385548,22,76,1
1776066722.6395748,22,76,1
1776066722.6415362,22,76,1
1776066722.6418176,22,78,1
1776066722.6453965,22,78,1
1776066722.6474228,22,78,1
1776066722.6486855,22,80,1
1776066722.6486855,22,82,1
1776066722.6544294,22,80,1
1776066722.6557155,22,80,1
1776066722.6557155,22,78,1
1776066722.6557155,22,80,1
1776066722.6612594,22,78,1
1776066722.6633937,22,78,1
1776066722.6649668,20,78,1
1776066722.6649668,20,78,1
1776066722.6649668,20,80,1
1776066722.6715398,20,80,1
1776066722.6725545,20,78,1
1776066722.6748905,20,78,1
1776066722.6774187,20,78,1
1776066722.6793675,20,80,1
1776066722.6804483,20,82,1
1776066722.6804483,20,82,1
1776066722.6852367,20,84,1
1776066722.6873257,20,84,1
1776066722.6873257,20,86,1
1776066722.6873257,20,88,1
1776066722.6873257,20,88,1
1776066722.6947868,20,88,1
1776066722.696518,20,88,1
1776066722.696518,20,88,1
1776066722.701342,20,90,1
1776066722.7032945,20,92,1
1776066722.7039475,20,92,1
1776066722.7072625,20,92,1
1776066722.7094815,20,90,1
1776066722.7115617,20,90,1
1776066722.711824,20,90,1
1776066722.7152972,22,90,1
1776066722.7175364,22,90,1
1776066722.7194984,22,90,1
1776066722.7204278,22,92,1
1776066722.7231574,22,92,1
1776066722.725674,22,90,1
1776066722.726812,22,90,1
1776066722.7281137,22,88,1
1776066722.7311537,20,90,1
1776066722.733653,20,88,1
1776066722.733653,20,88,1
1776066722.7379746,22,88,1
1776066722.7396624,22,88,1
1776066722.7414112,22,88,1
1776066722.7414112,22,88,1
1776066722.7455392,22,88,1
1776066722.7470403,24,86,1
1776066722.7493563,24,86,1
1776066722.7513638,22,88,1
1776066722.7557428,22,86,1
1776066722.7557428,22,86,1
1776066722.757501,22,86,1
1776066722.7580085,22,86,1
1776066722.7600183,22,88,1
1776066722.762741,22,88,1
1776066722.762741,22,90,1
1776066722.762741,22,90,1
1776066722.7712076,24,90,1
1776066722.7712076,24,90,1
1776066722.7732146,24,88,1
1776066722.7745054,24,88,1
1776066722.7765162,24,88,1
1776066722.7785301,24,88,1
1776066722.7785301,24,90,1
1776066722.7785301,26,90,1
1776066722.7884228,24,90,1
1776066722.7884228,24,90,1
1776066722.7884228,24,92,1
1776066722.7909489,24,92,1
1776066722.7926953,24,92,1
1776066722.7950711,24,92,1
1776066722.7950711,24,90,1
1776066722.7950711,24,90,1
1776066722.8017592,22,90,1
1776066722.803691,24,90,1
1776066722.803691,22,90,1
1776066722.803691,24,90,1
1776066722.8102171,24,88,1
1776066722.8102171,24,90,1
1776066722.8102171,24,88,1
1776066722.8102171,24,88,1
1776066722.8173778,24,90,1
1776066722.8202136,24,88,1
1776066722.8230064,24,92,1
1776066722.8240473,24,94,1
1776066722.8252587,24,96,1
1776066722.8252587,24,98,1
1776066722.8287063,24,98,1
1776066722.830595,24,100,1
1776066722.833299,24,102,1
1776066722.839075,24,102,1
1776066722.8395925,24,106,1
1776066722.8404105,26,108,1
1776066722.8414736,26,108,1
1776066722.8414736,26,108,1
1776066722.846253,26,108,1
1776066722.846253,26,108,1
1776066722.8532724,26,108,1
1776066722.856662,26,108,1
1776066722.8592339,26,106,1
1776066722.8592339,26,106,1
1776066722.8592339,26,106,1
1776066722.8592339,26,104,1
1776066722.8607378,26,106,1
1776066722.8633828,24,106,1
1776066722.865124,24,106,1
1776066722.8668413,24,106,1
1776066722.871056,24,106,1
1776066722.8718517,24,106,1
1776066722.8728411,22,104,1
1776066722.8755128,22,104,1
1776066722.877276,22,104,1
1776066722.877276,22,102,1
1776066722.8811224,22,106,1
1776066722.8838093,22,104,1
1776066722.8868115,22,104,1
1776066722.8868115,22,104,1
1776066722.8906226,22,102,1
1776066722.8906226,22,102,1
1776066722.8906226,22,100,1
1776066722.8956861,22,100,1
1776066722.8973563,22,102,1
1776066722.8973563,22,102,1
1776066722.8973563,20,104,1
1776066722.902859,22,102,1
1776066722.90538,20,102,1
1776066722.90538,22,102,1
1776066722.90538,22,102,1
1776066722.9116933,22,104,1
1776066722.9137738,22,102,1
1776066722.9150684,22,102,1
1776066722.9150684,22,102,1
1776066722.919862,22,102,1
1776066722.92151,22,104,1
1776066722.9237761,24,104,1
1776066722.9237761,24,108,1
1776066722.927802,24,108,1
1776066722.9297898,24,110,1
1776066722.9297898,24,108,1
1776066722.9297898,24,108,1
1776066722.935121,24,108,1
1776066722.9371858,24,108,1
1776066722.9371858,24,108,1
1776066722.9371858,24,108,1
1776066722.9432032,24,106,1
1776066722.945943,24,104,1
1776066722.9471335,24,104,1
1776066722.9471335,24,100,1
1776066722.9515483,24,98,1
1776066722.9561303,24,94,1
1776066722.9561303,24,92,1
1776066722.9561303,24,92,1
1776066722.9613447,24,88,1
1776066722.9613447,24,88,1
1776066722.963167,24,88,1
1776066722.963167,24,88,1
1776066722.963167,24,86,1
1776066722.9710228,22,86,1
1776066722.9730306,22,88,1
1776066722.9730306,22,86,1
1776066722.975962,22,84,1
1776066722.9777076,22,84,1
1776066722.9777076,22,84,1
1776066722.9777076,22,86,1
1776066722.9777076,20,86,1
1776066722.9777076,22,84,1
1776066722.9886796,22,86,1
1776066722.9903955,22,84,1
1776066722.9903955,24,84,1
1776066722.9941766,24,84,1
1776066722.9974217,24,84,1
1776066722.9987805,24,86,1
1776066722.9991293,24,86,1
1776066722.9991293,24,88,1
1776066723.0037851,24,88,1
1776066723.005884,24,90,1
1776066723.0080578,26,88,1
1776066723.0098226,24,88,1
1776066723.0098226,26,90,1
1776066723.0139978,26,86,1
1776066723.0159705,24,88,1
1776066723.0172682,26,88,1
1776066723.0198736,26,88,1
1776066723.0216784,26,88,1
1776066723.0236864,26,88,1
1776066723.025693,26,88,1
1776066723.0276873,26,88,1
1776066723.0301042,26,88,1
1776066723.0320392,26,88,1
1776066723.0320392,26,86,1
1776066723.0377269,24,86,1
1776066723.0377269,26,86,1
1776066723.0377269,24,86,1
1776066723.0377269,24,88,1
1776066723.0435174,26,86,1
1776066723.0461416,26,86,1
1776066723.048072,26,86,1
1776066723.0495129,24,84,1
1776066723.0543392,26,84,1
1776066723.0551846,24,82,1
1776066723.0551846,24,82,1
1776066723.0580852,24,80,1
1776066723.0580852,24,82,1
1776066723.0621169,24,82,1
1776066723.064074,24,82,1
1776066723.0655186,24,80,1
1776066723.0682414,24,80,1
1776066723.0718868,24,80,1
1776066723.0718868,26,82,1
1776066723.0729933,26,80,1
1776066723.0755768,24,80,1
1776066723.076616,24,80,1
1776066723.080061,24,80,1
1776066723.082101,24,84,1
1776066723.082101,24,84,1
1776066723.0849106,24,86,1
1776066723.0874765,24,84,1
1776066723.0899909,24,84,1
1776066723.09225,24,86,1
1776066723.093551,24,84,1
1776066723.0960054,26,84,1
1776066723.0981898,26,84,1
1776066723.0997372,26,84,1
1776066723.1019769,26,86,1
1776066723.1046402,26,86,1
1776066723.1062922,26,88,1
1776066723.1081762,26,86,1
1776066723.1095314,26,88,1
1776066723.111916,28,88,1
1776066723.1142037,28,88,1
1776066723.1153567,30,86,1
1776066723.12133,28,86,1
1776066723.12133,28,88,1
1776066723.12133,28,88,1
1776066723.12133,28,88,1
1776066723.1261265,26,86,1
1776066723.128129,28,86,1
1776066723.1302755,28,86,1
1776066723.131637,28,86,1
1776066723.134286,28,84,1
1776066723.13704,26,84,1
1776066723.1378465,26,84,1
1776066723.1378465,26,84,1
1776066723.1378465,26,84,1
1776066723.1440306,26,86,1
1776066723.1463199,26,86,1
1776066723.1463199,26,86,1
1776066723.1463199,26,86,1
1776066723.1516917,26,86,1
1776066723.1538866,26,84,1
1776066723.1545513,26,84,1
1776066723.1545513,26,86,1
1776066723.1584284,26,86,1
1776066723.1622374,28,90,1
1776066723.1642253,28,90,1
1776066723.1642253,28,92,1
1776066723.1680706,28,92,1
1776066723.1680706,26,92,1
1776066723.1711845,26,92,1
1776066723.1733258,26,90,1
1776066723.1761477,26,90,1
1776066723.1761477,26,90,1
1776066723.1761477,26,90,1
1776066723.1761477,26,90,1
1776066723.1843078,26,92,1
1776066723.1843078,26,92,1
1776066723.1873293,26,94,1
1776066723.1900823,28,94,1
1776066723.1917093,28,94,1
1776066723.1927898,28,94,1
1776066723.1927898,28,92,1
1776066723.1980495,28,94,1
1776066723.2000241,28,94,1
1776066723.2016923,26,98,1
1776066723.2058113,28,98,1
1776066723.2058113,28,98,1
1776066723.2083452,28,100,1
1776066723.209585,28,98,1
1776066723.2121706,28,98,1
1776066723.2121706,28,96,1
1776066723.2157347,28,96,1
1776066723.2157347,28,96,1
1776066723.2200613,28,94,1
1776066723.2226574,26,98,1
1776066723.2241716,26,98,1
1776066723.2241716,26,98,1
1776066723.2283242,26,98,1
1776066723.230455,28,100,1
1776066723.2322018,28,102,1
1776066723.2340755,26,100,1
1776066723.234588,26,100,1
1776066723.2374644,26,102,1
1776066723.2405155,24,102,1
1776066723.242555,24,106,1
1776066723.2435951,22,106,1
1776066723.2463205,22,108,1
1776066723.2477984,22,108,1
1776066723.2490888,22,110,1
1776066723.2490888,24,110,1
1776066723.2547972,24,108,1
1776066723.2562997,24,108,1
1776066723.257881,24,106,1
1776066723.257881,24,104,1
1776066723.257881,26,104,1
1776066723.2638216,26,106,1
1776066723.2665827,26,104,1
1776066723.2681384,26,108,1
1776066723.2705173,26,108,1
1776066723.2720406,26,108,1
1776066723.2735507,26,106,1
1776066723.2755566,26,104,1
1776066723.2755566,28,104,1
1776066723.2801592,28,104,1
1776066723.2801592,28,106,1
1776066723.2801592,28,106,1
1776066723.2867043,28,106,1
1776066723.2887123,28,106,1
1776066723.2900016,28,106,1
1776066723.292011,28,104,1
1776066723.292011,28,102,1
1776066723.2958765,28,102,1
1776066723.2978323,28,102,1
1776066723.2978323,28,100,1
1776066723.3059437,28,102,1
1776066723.3066194,28,102,1
1776066723.3066194,28,104,1
1776066723.308516,28,104,1
1776066723.308516,28,106,1
1776066723.308516,30,104,1
1776066723.314161,28,102,1
1776066723.314161,28,102,1
1776066723.3227677,28,100,1
1776066723.3227677,28,102,1
1776066723.3227677,28,102,1
1776066723.3227677,28,102,1
1776066723.3227677,28,100,1
1776066723.3227677,28,102,1
1776066723.330202,28,100,1
1776066723.3312082,28,100,1
1776066723.3390927,28,98,1
1776066723.3390927,28,98,1
1776066723.3390927,28,100,1
1776066723.3390927,28,100,1
1776066723.3390927,28,102,1
1776066723.3390927,28,102,1
1776066723.3462622,28,102,1
1776066723.3472717,28,102,1
1776066723.3493884,28,100,1
1776066723.3551035,28,100,1
1776066723.3551035,28,96,1
1776066723.3551035,28,96,1
1776066723.3551035,28,96,1
1776066723.3590713,28,94,1
1776066723.361827,28,98,1
1776066723.3636596,30,96,1
1776066723.3636596,30,96,1
1776066723.3699808,30,96,1
1776066723.372623,30,94,1
1776066723.372623,30,94,1
1776066723.3736312,30,92,1
1776066723.3736312,30,90,1
1776066723.3736312,30,92,1
1776066723.3800838,28,92,1
1776066723.3810923,30,94,1
1776066723.3810923,28,94,1
1776066723.388941,28,100,1
1776066723.3897476,28,100,1
1776066723.3897476,28,104,1
1776066723.3897476,30,102,1
1776066723.3946114,28,100,1
1776066723.396079,28,100,1
1776066723.3973687,28,100,1
1776066723.3973687,28,100,1
1776066723.4046388,28,104,1
1776066723.4052641,28,106,1
1776066723.4065537,28,106,1
1776066723.4082081,28,108,1
1776066723.4082081,28,108,1
1776066723.411866,28,108,1
1776066723.4139917,28,104,1
1776066723.414998,26,104,1
1776066723.4226272,26,102,1
1776066723.4226272,26,104,1
1776066723.423502,26,104,1
1776066723.423502,26,106,1
1776066723.425795,26,108,1
1776066723.4280536,26,108,1
1776066723.430691,26,110,1
1776066723.430691,26,108,1
1776066723.4379375,26,108,1
1776066723.4379375,24,106,1
1776066723.4389446,24,106,1
1776066723.4389446,24,106,1
1776066723.4389446,24,108,1
1776066723.4389446,26,108,1
1776066723.4460602,26,110,1
1776066723.447069,26,110,1
1776066723.447069,26,112,1
1776066723.451356,26,112,1
1776066723.45395,26,110,1
1776066723.4566133,26,110,1
1776066723.4579394,26,112,1
1776066723.4606392,26,112,1
1776066723.462654,26,112,1
1776066723.4639394,26,112,1
1776066723.4639394,26,110,1
1776066723.4679573,26,112,1
1776066723.4704354,26,110,1
1776066723.4719546,26,110,1
1776066723.4735298,26,108,1
1776066723.4766343,26,108,1
1776066723.478676,26,108,1
1776066723.4804199,26,108,1
1776066723.4804199,26,108,1
1776066723.484687,26,108,1
1776066723.484687,26,108,1
1776066723.488833,26,110,1
1776066723.488833,24,108,1
1776066723.4928243,24,108,1
1776066723.4948084,24,106,1
1776066723.4959671,24,106,1
1776066723.498684,24,106,1
1776066723.5006738,24,106,1
1776066723.5034833,24,108,1
1776066723.5034833,24,108,1
1776066723.5067248,24,108,1
1776066723.508918,24,108,1
1776066723.5100534,24,108,1
1776066723.5100534,24,108,1
1776066723.514531,24,104,1
1776066723.5170507,24,106,1
1776066723.5181031,24,106,1
1776066723.5210311,24,106,1
1776066723.5230582,24,110,1
1776066723.5249274,24,108,1
1776066723.526079,26,110,1
1776066723.528963,26,110,1
1776066723.5310547,26,108,1
1776066723.5320804,26,106,1
1776066723.5320804,26,104,1
1776066723.537649,24,102,1
1776066723.5391657,24,102,1
1776066723.5391657,24,102,1
1776066723.5391657,24,106,1
1776066723.5436316,26,104,1
1776066723.5436316,26,104,1
1776066723.5436316,26,104,1
1776066723.5436316,26,104,1
1776066723.5531003,26,102,1
1776066723.5543487,26,100,1
1776066723.5569727,26,100,1
1776066723.5569727,26,100,1
1776066723.560582,26,100,1
1776066723.5634196,26,102,1
1776066723.5634196,26,102,1
1776066723.5634196,26,104,1
1776066723.5678382,24,104,1
1776066723.5708988,24,106,1
1776066723.5708988,24,104,1
1776066723.573732,24,102,1
1776066723.5768044,22,102,1
1776066723.5787694,24,102,1
1776066723.5803301,24,102,1
1776066723.5803301,24,106,1
1776066723.5848138,24,106,1
1776066723.5866446,24,106,1
1776066723.5871031,24,106,1
1776066723.5871031,24,106,1
1776066723.5928302,24,106,1
1776066723.595108,24,104,1
1776066723.596156,24,102,1
1776066723.596156,24,104,1
1776066723.6005876,24,104,1
1776066723.6005876,24,106,1
1776066723.6040251,24,108,1
1776066723.6040251,24,108,1
1776066723.6088905,24,110,1
1776066723.6111887,24,110,1
1776066723.6129277,24,108,1
1776066723.6129277,24,108,1
1776066723.6170437,24,106,1
1776066723.6193156,24,108,1
1776066723.621233,24,108,1
1776066723.6218636,24,110,1
1776066723.6251361,24,112,1
1776066723.6270826,24,110,1
1776066723.6284935,24,114,1
1776066723.6284935,24,114,1
1776066723.6331205,24,114,1
1776066723.6347444,22,110,1
1776066723.6364913,22,108,1
1776066723.6375,22,106,1
1776066723.6409373,22,106,1
1776066723.6432366,22,108,1
1776066723.6447275,22,108,1
1776066723.6447275,22,106,1
1776066723.6490486,22,108,1
1776066723.6512358,20,108,1
1776066723.6512358,20,108,1
1776066723.654069,20,104,1
1776066723.6568418,20,106,1
1776066723.659191,20,106,1
1776066723.659191,20,108,1
1776066723.6627529,20,110,1
1776066723.6632266,20,112,1
1776066723.6667955,20,112,1
1776066723.6667955,20,114,1
1776066723.673249,20,114,1
1776066723.673732,20,114,1
1776066723.67524,20,112,1
1776066723.67524,18,112,1
1776066723.67524,18,112,1
1776066723.6798398,18,114,1
1776066723.7034593,18,116,1
1776066723.7229383,18,118,1
1776066723.7430587,18,116,1
1776066723.7700636,18,118,1
1776066723.7720735,18,118,1
1776066723.7720735,18,118,1
1776066723.796867,18,114,1
1776066723.8032823,18,114,1
1776066723.8032823,18,114,1
1776066723.8052921,18,114,1
1776066723.8052921,18,116,1
1776066723.807301,18,116,1
1776066723.807301,18,116,1
1776066723.807301,18,118,1
1776066723.807301,18,116,1
1776066723.8093112,16,116,1
1776066723.8093112,16,114,1
1776066723.8113205,16,112,1
1776066723.8113205,16,114,1
1776066723.8113205,18,114,1
1776066723.8133292,18,116,1
1776066723.8233068,18,118,1
1776066723.8233068,18,118,1
1776066723.8233068,20,118,1
1776066723.8233068,20,116,1
1776066723.8233068,20,116,1
1776066723.8233068,20,114,1
1776066723.8233068,20,114,1
1776066723.8318946,20,116,1
1776066723.8339014,20,116,1
1776066723.8339014,18,118,1
1776066723.8366945,20,120,1
1776066723.8374398,18,118,1
1776066723.8374398,18,120,1
1776066723.8382664,18,120,1
1776066723.8382664,18,118,1
1776066723.8382664,18,116,1
1776066723.8382664,18,116,1
1776066723.8382664,18,114,1
1776066723.8382664,18,116,1
1776066723.8382664,18,116,1
1776066723.8382664,18,120,1
1776066723.8382664,18,122,1
1776066723.8415709,18,124,1
1776066723.842122,18,124,1
1776066723.8424234,18,124,1
1776066723.8424234,18,120,1
1776066723.8424234,18,120,1
1776066723.8424234,18,120,1
1776066723.8424234,18,120,1
1776066723.8424234,18,124,1
1776066723.8424234,18,122,1
1776066723.8444297,18,122,1
1776066723.8444297,18,120,1
1776066723.8444297,18,118,1
1776066723.8444297,18,118,1
1776066723.8444297,18,116,1
1776066723.8444297,18,116,1
1776066723.8444297,18,116,1
1776066723.8464508,20,116,1
1776066723.8468933,20,120,1
1776066723.8468933,20,120,1
1776066723.8468933,22,120,1
1776066723.8468933,22,120,1
1776066723.8468933,22,120,1
1776066723.8468933,22,118,1
1776066723.8468933,22,116,1
1776066723.8468933,22,114,1
1776066723.8468933,22,114,1
1776066723.8468933,24,116,1
1776066723.8468933,24,118,1
1776066723.8468933,24,120,1
1776066723.8468933,24,120,1
1776066723.8468933,24,122,1
1776066723.8468933,24,124,1
1776066723.8524718,24,122,1
1776066723.8547134,24,120,1
1776066723.8550894,22,120,1
1776066723.8550894,22,118,1
1776066723.8550894,22,118,1
1776066723.8550894,22,122,1
1776066723.8570921,22,120,1
1776066723.8570921,22,120,1
1776066723.8570921,20,120,1
1776066723.8570921,20,120,1
1776066723.8570921,20,118,1
1776066723.858986,18,116,1
1776066723.858986,18,114,1
1776066723.858986,18,116,1
1776066723.860787,18,116,1
1776066723.860787,18,116,1
1776066723.8654513,20,118,1
1776066723.8674865,20,116,1
1776066723.8699384,20,118,1
1776066723.8699384,22,118,1
1776066723.873446,22,116,1
1776066723.8754406,22,114,1
1776066723.877509,22,112,1
1776066723.877509,22,112,1
1776066723.8812284,22,112,1
1776066723.8835435,22,116,1
1776066723.8835435,22,114,1
1776066723.8867037,24,116,1
1776066723.8895605,24,114,1
1776066723.891663,24,116,1
1776066723.891663,24,112,1
1776066723.8937123,24,110,1
1776066723.897576,24,108,1
1776066723.8994803,24,106,1
1776066723.9017792,24,108,1
1776066723.904526,24,110,1
1776066723.9053545,24,110,1
1776066723.9053545,24,108,1
1776066723.9053545,24,110,1
1776066723.911195,26,108,1
1776066723.9128222,26,108,1
1776066723.9128222,26,106,1
1776066723.9128222,26,106,1
1776066723.9210806,26,106,1
1776066723.9210806,26,106,1
1776066723.9210806,26,106,1
1776066723.9210806,26,106,1
1776066723.9263515,26,104,1
1776066723.9289002,26,106,1
1776066723.9289002,26,106,1
1776066723.9289002,24,104,1
1776066723.9383423,24,104,1
1776066723.9389973,24,102,1
1776066723.9389973,24,102,1
1776066723.9389973,24,102,1
1776066723.942878,24,104,1
1776066723.9448838,24,106,1
1776066723.9448838,24,104,1
1776066723.9448838,24,106,1
1776066723.9555628,24,104,1
1776066723.9555628,24,102,1
1776066723.9555628,24,100,1
1776066723.9555628,24,98,1
1776066723.961855,24,98,1
1776066723.961855,24,98,1
1776066723.9638712,24,100,1
1776066723.9638712,24,100,1
1776066723.9674723,24,100,1
1776066723.9674723,24,102,1
1776066723.9715393,24,100,1
1776066723.9727967,24,100,1
1776066723.9755473,26,98,1
1776066723.977035,26,98,1
1776066723.979354,26,98,1
1776066723.979354,26,98,1
1776066723.979354,26,100,1
1776066723.9835618,26,100,1
1776066723.9890063,26,100,1
1776066723.9904072,26,102,1
1776066723.9904072,26,102,1
1776066723.9919286,26,100,1
1776066723.9955728,26,100,1
1776066723.9955728,24,98,1
1776066723.9955728,24,98,1
1776066724.0045383,24,100,1
1776066724.0053887,24,102,1
1776066724.005752,24,104,1
1776066724.0085723,26,102,1
1776066724.0206666,26,106,1
1776066724.021287,26,106,1
1776066724.021287,28,104,1
1776066724.021287,28,102,1
1776066724.0232975,26,102,1
1776066724.0232975,26,100,1
1776066724.024804,26,102,1
1776066724.024804,26,104,1
1776066724.024804,26,106,1
1776066724.0288231,26,106,1
1776066724.0332985,26,106,1
1776066724.0364096,26,106,1
1776066724.0371382,26,104,1
1776066724.0391445,26,102,1
1776066724.0418558,24,102,1
1776066724.0444896,24,102,1
1776066724.047595,24,102,1
1776066724.0522168,24,106,1
1776066724.0535524,24,106,1
1776066724.0540414,24,106,1
1776066724.0540414,24,108,1
1776066724.0558062,24,110,1
1776066724.0558062,22,108,1
1776066724.0558062,22,106,1
1776066724.0567906,22,106,1
1776066724.058798,22,106,1
1776066724.0609298,22,108,1
1776066724.0635707,22,110,1
1776066724.0649095,22,110,1
1776066724.067008,22,112,1
1776066724.0681062,22,112,1
1776066724.0715845,24,114,1
1776066724.0729167,24,112,1
1776066724.0756242,24,110,1
1776066724.0775876,24,108,1
1776066724.078929,24,110,1
1776066724.078929,24,110,1
1776066724.0835645,24,112,1
1776066724.0846307,24,112,1
1776066724.087017,24,112,1
1776066724.0895948,24,112,1
1776066724.0916378,24,114,1
1776066724.092959,24,112,1
1776066724.092959,24,112,1
1776066724.1032689,24,112,1
1776066724.110204,24,112,1
1776066724.110204,24,112,1
1776066724.1122227,24,114,1
1776066724.1122227,24,116,1
1776066724.1139925,24,116,1
1776066724.1139925,22,118,1
1776066724.1139925,22,118,1
1776066724.1279693,22,118,1
1776066724.1279693,22,116,1
1776066724.1279693,22,116,1
1776066724.1390433,22,116,1
1776066724.1416082,22,118,1
1776066724.1456232,22,120,1
1776066724.148617,22,120,1
1776066724.154642,24,120,1
1776066724.154642,24,120,1
1776066724.1567392,22,120,1
1776066724.1589515,22,120,1
1776066724.1609619,22,118,1
1776066724.1620736,20,116,1
1776066724.1631117,20,118,1
1776066724.1631117,20,118,1
1776066724.1648526,20,120,1
1776066724.1648526,20,120,1
1776066724.1648526,20,118,1
1776066724.1648526,20,118,1
1776066724.1668615,22,118,1
1776066724.1708314,20,116,1
1776066724.1708314,20,114,1
1776066724.1728978,20,112,1
1776066724.1728978,20,114,1
1776066724.173909,20,114,1
1776066724.1762037,20,116,1
1776066724.17821,20,116,1
1776066724.17821,20,114,1
1776066724.180219,20,116,1
1776066724.1832914,20,114,1
1776066724.1836357,20,114,1
1776066724.1836357,20,110,1
1776066724.1836357,20,110,1
1776066724.1856606,20,110,1
1776066724.1866834,20,112,1
1776066724.1872118,20,114,1
1776066724.1872118,20,114,1
1776066724.1872118,22,114,1
1776066724.1904135,22,114,1
1776066724.1904135,22,112,1
1776066724.1924212,22,112,1
1776066724.194428,22,108,1
1776066724.1978738,20,110,1
1776066724.1998801,20,110,1
1776066724.1998801,20,112,1
1776066724.2032247,20,114,1
1776066724.207533,20,116,1
1776066724.207533,22,114,1
1776066724.207533,22,118,1
1776066724.207533,22,116,1
1776066724.2132695,22,116,1
1776066724.2132695,22,114,1
1776066724.2132695,22,114,1
1776066724.2198124,22,112,1
1776066724.2217586,22,114,1
1776066724.2217586,22,114,1
1776066724.2217586,22,116,1
1776066724.2217586,22,116,1
1776066724.2289376,22,118,1
1776066724.2302327,22,118,1
1776066724.2302327,22,116,1
1776066724.236284,24,114,1
1776066724.2380311,24,114,1
1776066724.2380311,24,112,1
1776066724.2380311,24,112,1
1776066724.2380311,24,114,1
1776066724.2454295,24,112,1
1776066724.2464795,24,112,1
1776066724.2464795,24,110,1
1776066724.2464795,24,108,1
1776066724.253202,26,106,1
1776066724.2549417,26,104,1
1776066724.2549417,26,104,1
1776066724.2549417,26,102,1
1776066724.2613053,26,104,1
1776066724.263088,26,104,1
1776066724.263088,26,106,1
1776066724.263088,26,104,1
1776066724.2708657,26,106,1
1776066724.2708657,26,106,1
1776066724.2731266,26,106,1
1776066724.274134,26,106,1
1776066724.2772577,26,106,1
1776066724.2789998,26,106,1
1776066724.2789998,26,108,1
1776066724.2789998,26,108,1
1776066724.2845993,26,110,1
1776066724.2872086,26,110,1
1776066724.2872086,26,112,1
1776066724.2872086,26,114,1
1776066724.2929664,26,112,1
1776066724.295225,26,112,1
1776066724.295225,26,112,1
1776066724.295225,26,112,1
1776066724.303909,26,114,1
1776066724.303909,28,116,1
1776066724.303909,28,116,1
1776066724.303909,28,118,1
1776066724.303909,28,116,1
1776066724.311349,28,118,1
1776066724.311349,28,116,1
1776066724.311349,26,118,1
1776066724.311349,26,118,1
1776066724.3207247,26,116,1
1776066724.3207247,26,120,1
1776066724.3207247,26,120,1
1776066724.3207247,26,122,1
1776066724.3274941,28,122,1
1776066724.3274941,28,124,1
1776066724.3274941,28,124,1
1776066724.3274941,28,122,1
1776066724.336587,26,122,1
1776066724.338199,26,120,1
1776066724.338199,26,120,1
1776066724.338199,26,120,1
1776066724.3434985,24,122,1
1776066724.3434985,24,124,1
1776066724.3434985,24,124,1
1776066724.3434985,24,124,1
1776066724.3513758,22,124,1
1776066724.3537624,22,122,1
1776066724.3537624,22,120,1
1776066724.3537624,22,118,1
1776066724.3595095,22,118,1
1776066724.3595095,22,118,1
1776066724.3595095,22,120,1
1776066724.3595095,22,122,1
1776066724.3675957,22,120,1
1776066724.3698885,22,122,1
1776066724.3704362,22,122,1
1776066724.3741696,22,122,1
1776066724.3755155,22,120,1
1776066724.3755155,22,120,1
1776066724.3755155,20,122,1
1776066724.3755155,20,122,1
1776066724.383709,20,124,1
1776066724.3866646,18,124,1
1776066724.3871968,18,122,1
1776066724.3871968,18,122,1
1776066724.391642,18,122,1
1776066724.3929844,18,120,1
1776066724.3947268,18,118,1
1776066724.3967333,18,116,1
1776066724.39971,18,116,1
1776066724.39971,18,116,1
1776066724.4039764,18,118,1
1776066724.4062927,18,118,1
1776066724.4076073,18,118,1
1776066724.4076073,20,118,1
1776066724.4076073,20,118,1
1776066724.4076073,20,116,1
1776066724.415461,20,114,1
1776066724.415461,20,112,1
1776066724.4203753,20,112,1
1776066724.4203753,20,112,1
1776066724.4232724,20,114,1
1776066724.4232724,22,112,1
1776066724.426372,20,112,1
1776066724.428378,22,112,1
1776066724.431775,20,112,1
1776066724.431775,20,110,1
1776066724.4364088,20,108,1
1776066724.4384155,20,110,1
1776066724.4392967,20,108,1
1776066724.4392967,20,110,1
1776066724.4392967,20,110,1
1776066724.4459016,20,108,1
1776066724.4476416,22,110,1
1776066724.4496486,20,108,1
1776066724.4557903,20,108,1
1776066724.4557903,20,106,1
1776066724.4557903,18,104,1
1776066724.4557903,18,104,1
1776066724.45984,18,102,1
1776066724.4623399,18,104,1
1776066724.464245,18,104,1
1776066724.473128,18,104,1
1776066724.473128,18,104,1
1776066724.4741366,18,104,1
1776066724.4741366,18,104,1
1776066724.4741366,18,102,1
1776066724.476147,20,100,1
1776066724.4781535,20,100,1
1776066724.4809773,20,98,1
1776066724.4809773,20,100,1
1776066724.4809773,20,100,1
1776066724.4886105,20,100,1
1776066724.4886105,20,98,1
1776066724.4886105,18,98,1
1776066724.4906187,18,100,1
1776066724.496331,18,98,1
1776066724.496331,18,98,1
1776066724.496331,18,98,1
1776066724.498594,18,100,1
1776066724.5057728,18,102,1
1776066724.5075548,18,104,1
1776066724.5095615,18,104,1
1776066724.5095615,18,104,1
1776066724.5095615,18,104,1
1776066724.5148287,18,104,1
1776066724.5148287,20,104,1
1776066724.524582,20,102,1
1776066724.524582,20,102,1
1776066724.524582,20,102,1
1776066724.5265896,20,102,1
1776066724.5265896,20,104,1
1776066724.5265896,20,104,1
1776066724.5285964,20,104,1
1776066724.5366042,20,104,1
1776066724.5386162,20,104,1
1776066724.5386162,18,102,1
1776066724.5386162,18,100,1
1776066724.5406249,18,102,1
1776066724.5412202,16,102,1
1776066724.5471072,16,104,1
1776066724.5550382,16,106,1
1776066724.5554025,16,108,1
1776066724.5573442,16,108,1
1776066724.5577796,16,108,1
1776066724.5624027,16,110,1
1776066724.5677714,16,108,1
1776066724.5677714,16,108,1
1776066724.5718615,16,108,1
1776066724.5726185,16,106,1
1776066724.5726185,16,106,1
1776066724.5732255,16,106,1
1776066724.5752463,16,104,1
1776066724.5752463,16,106,1
1776066724.5752463,16,102,1
1776066724.5752463,14,104,1
1776066724.5780816,16,104,1
1776066724.5780816,14,104,1
1776066724.579008,16,106,1
1776066724.5799155,16,106,1
1776066724.5824947,16,106,1
1776066724.5824947,16,106,1
1776066724.5884137,16,106,1
1776066724.5884137,16,106,1
1776066724.5884137,16,104,1
1776066724.5884137,16,104,1
1776066724.5936723,16,104,1
1776066724.5954726,16,104,1
1776066724.5954726,16,104,1
1776066724.5954726,16,104,1
1776066724.6043334,16,106,1
1776066724.6043334,16,106,1
1776066724.6043334,16,106,1
1776066724.6043334,16,104,1
1776066724.610208,16,104,1
1776066724.6114063,16,106,1
1776066724.6114063,16,104,1
1776066724.6114063,16,104,1
1776066724.618246,16,106,1
1776066724.6209426,16,106,1
1776066724.6213315,16,106,1
1776066724.6213315,18,108,1
1776066724.625054,18,106,1
1776066724.625054,18,104,1
1776066724.625054,18,104,1
1776066724.625054,18,102,1
1776066724.6333005,18,102,1
1776066724.6333005,18,102,1
1776066724.6374195,18,104,1
1776066724.6374195,18,106,1
1776066724.6419637,18,110,1
1776066724.6419637,18,112,1
1776066724.645025,18,114,1
1776066724.6470304,20,116,1
1776066724.649952,20,118,1
1776066724.652473,20,120,1
1776066724.6535592,20,118,1
1776066724.6561055,20,118,1
1776066724.6582336,20,118,1
1776066724.6602397,20,118,1
1776066724.6622453,20,118,1
1776066724.6639402,20,120,1
1776066724.6664546,20,118,1
1776066724.6684644,20,116,1
1776066724.669943,18,114,1
1776066724.6722746,20,114,1
1776066724.6742842,20,112,1
1776066724.6742842,20,110,1
1776066724.6771307,20,112,1
1776066724.6771307,20,110,1
1776066724.6811745,20,114,1
1776066724.68415,20,114,1
1776066724.687365,20,116,1
1776066724.687365,20,116,1
1776066724.6895456,20,118,1
1776066724.6924455,20,118,1
1776066724.6924455,20,118,1
1776066724.6924455,20,116,1
1776066724.6984138,20,118,1
1776066724.70021,18,118,1
1776066724.70306,20,116,1
1776066724.7050676,20,116,1
1776066724.7054107,20,112,1
1776066724.708506,22,110,1
1776066724.708506,22,110,1
1776066724.7123547,24,108,1
1776066724.714613,24,106,1
1776066724.7166228,24,106,1
1776066724.7166228,24,104,1
1776066724.7218683,24,104,1
1776066724.7218683,24,106,1
1776066724.7246532,24,106,1
1776066724.7246532,24,106,1
1776066724.7283695,24,106,1
1776066724.7306676,24,106,1
1776066724.7326736,26,108,1
1776066724.7343462,26,106,1
1776066724.7370417,26,106,1
1776066724.7370417,26,108,1
1776066724.7391126,26,108,1
1776066724.7421749,26,108,1
1776066724.7443557,26,108,1
1776066724.7463691,26,108,1
1776066724.7495108,26,108,1
1776066724.7495108,26,108,1
1776066724.7495108,24,108,1
1776066724.7541223,24,106,1
1776066724.756514,24,108,1
1776066724.7585194,24,108,1
1776066724.7605333,24,108,1
1776066724.7625403,24,110,1
1776066724.7643988,24,112,1
1776066724.7666159,24,110,1
1776066724.7666159,24,110,1
1776066724.7707863,22,108,1
1776066724.7727954,22,108,1
1776066724.7743204,22,106,1
1776066724.7743204,22,102,1
1776066724.7781696,22,104,1
1776066724.7801764,22,102,1
1776066724.7819269,24,104,1
1776066724.783743,24,104,1
1776066724.786634,24,102,1
1776066724.7872424,24,102,1
1776066724.7913682,24,102,1
1776066724.792394,24,102,1
1776066724.7944472,24,100,1
1776066724.7944472,24,100,1
1776066724.798459,24,102,1
1776066724.8001995,24,102,1
1776066724.8001995,24,104,1
1776066724.8055189,24,104,1
1776066724.807643,24,104,1
1776066724.8086505,24,104,1
1776066724.8086505,24,102,1
1776066724.8121855,24,102,1
1776066724.8143477,26,98,1
1776066724.8209476,26,98,1
1776066724.822976,26,96,1
1776066724.8247209,26,96,1
1776066724.8247209,26,98,1
1776066724.8247209,26,98,1
1776066724.8247209,26,98,1
1776066724.8247209,28,96,1
1776066724.828882,28,96,1
1776066724.828882,28,94,1
1776066724.832872,26,96,1
1776066724.83704,26,96,1
1776066724.83704,24,98,1
1776066724.83704,24,98,1
1776066724.840923,22,100,1
1776066724.840923,22,100,1
1776066724.840923,22,102,1
1776066724.840923,22,102,1
1776066724.8490446,22,102,1
1776066724.853445,22,102,1
1776066724.8539288,22,102,1
1776066724.8558843,22,100,1
1776066724.8573895,22,102,1
1776066724.8604095,22,102,1
1776066724.8604095,22,104,1
1776066724.8604095,22,104,1
1776066724.8654563,22,104,1
1776066724.8679163,22,104,1
1776066724.8709273,20,104,1
1776066724.8709273,22,104,1
1776066724.8746254,22,104,1
1776066724.8769875,20,102,1
1776066724.879526,22,102,1
1776066724.879526,22,102,1
1776066724.8931315,22,104,1
1776066724.8931315,22,104,1
1776066724.8943293,22,102,1
1776066724.8943293,22,102,1
1776066724.8963377,22,100,1
1776066724.9000738,22,98,1
1776066724.9029803,24,98,1
1776066724.9029803,24,96,1
1776066724.9062035,24,96,1
1776066724.9071066,24,96,1
1776066724.9089231,24,96,1
1776066724.909703,22,98,1
1776066724.9107518,22,96,1
1776066724.9110782,22,94,1
1776066724.9110782,22,92,1
1776066724.9129574,22,92,1
1776066724.9147391,22,92,1
1776066724.9157486,20,92,1
1776066724.9157486,22,94,1
1776066724.924548,22,94,1
1776066724.924548,22,98,1
1776066724.924548,24,98,1
1776066724.9257028,24,98,1
1776066724.9257028,24,98,1
1776066724.9310937,24,96,1
1776066724.932907,26,96,1
1776066724.932907,24,96,1
1776066724.932907,24,94,1
1776066724.9403238,24,96,1
1776066724.9403238,24,96,1
1776066724.942335,24,98,1
1776066724.942335,24,98,1
1776066724.942335,24,98,1
1776066724.9483902,24,98,1
1776066724.951421,24,98,1
1776066724.9581392,24,98,1
1776066724.9594867,24,96,1
1776066724.9613154,22,96,1
1776066724.9613154,22,98,1
1776066724.9613154,22,98,1
1776066724.9613154,22,100,1
1776066724.9639091,22,100,1
1776066724.9639091,22,98,1
1776066724.9717705,22,98,1
1776066724.9747622,22,98,1
1776066724.9757738,22,98,1
1776066724.9757738,22,94,1
1776066724.9757738,22,94,1
1776066724.9757738,22,96,1
1776066724.9833858,22,94,1
1776066724.9852467,22,96,1
1776066724.9916553,24,96,1
1776066724.9916553,24,96,1
1776066724.9916553,24,96,1
1776066724.9916553,24,96,1
1776066724.9936652,24,96,1
1776066724.9936652,24,94,1
1776066724.9936652,24,94,1
1776066725.0002267,24,96,1
1776066725.0002267,24,94,1
1776066725.00623,24,96,1
1776066725.008244,24,96,1
1776066725.008244,24,94,1
1776066725.008244,24,94,1
1776066725.010219,24,92,1
1776066725.01223,24,92,1
1776066725.0167668,24,92,1
1776066725.0261898,24,92,1
1776066725.0261898,24,92,1
1776066725.0261898,22,92,1
1776066725.0261898,22,94,1
1776066725.0281918,22,92,1
1776066725.0288565,22,92,1
1776066725.0288565,22,90,1
1776066725.0306747,22,92,1
1776066725.0332901,22,92,1
1776066725.0399506,24,92,1
1776066725.040509,22,92,1
1776066725.0410175,22,92,1
1776066725.0410175,24,92,1
1776066725.047929,22,94,1
1776066725.0487869,24,94,1
1776066725.0487869,22,92,1
1776066725.0507953,24,92,1
1776066725.0565836,24,90,1
1776066725.0586152,24,90,1
1776066725.0606246,24,86,1
1776066725.0613563,22,86,1
1776066725.0616686,22,86,1
1776066725.0621765,22,86,1
1776066725.0628865,22,88,1
1776066725.0735664,22,88,1
1776066725.075337,22,86,1
1776066725.0759099,22,86,1
1776066725.0779202,22,84,1
1776066725.0779202,22,86,1
1776066725.0799305,22,86,1
1776066725.083581,22,84,1
1776066725.0917516,22,86,1
1776066725.0937634,22,88,1
1776066725.0937634,22,90,1
1776066725.0957737,22,90,1
1776066725.0957737,22,88,1
1776066725.0977848,22,88,1
1776066725.0977848,24,88,1
1776066725.2238994,24,88,1
1776066725.2256482,24,86,1
1776066725.2256482,24,86,1
1776066725.2256482,24,86,1
1776066725.2276607,24,86,1
1776066725.2276607,24,88,1
1776066725.2296743,24,88,1
1776066725.2296743,24,88,1
1776066725.2316859,24,88,1
1776066725.2337,24,86,1
1776066725.3962991,24,88,1
1776066725.4631796,24,84,1
1776066725.4631796,22,84,1
1776066725.4651914,24,84,1
1776066725.4651914,22,82,1
1776066725.467206,22,86,1
1776066725.4692194,22,84,1
1776066725.4744914,22,84,1
1776066725.4754915,24,84,1
1776066725.478223,24,82,1
1776066725.480234,24,82,1
1776066725.4822466,24,80,1
1776066725.4822466,24,80,1
1776066725.5470629,24,80,1
1776066725.566971,24,80,1
1776066725.5677752,24,80,1
1776066725.5732732,24,82,1
1776066725.5757864,24,80,1
1776066725.579811,24,80,1
1776066725.581821,24,80,1
1776066725.5858889,24,82,1
1776066725.5879009,24,80,1
1776066725.5879009,24,80,1
1776066725.5947666,24,80,1
1776066725.6591818,24,78,1
1776066725.684604,24,80,1
1776066725.6860511,26,82,1
1776066725.6910894,26,80,1
1776066725.6990907,26,80,1
1776066725.704044,26,80,1
1776066725.7093585,26,80,1
1776066725.7105663,26,78,1
1776066725.7112787,24,78,1
1776066725.7156513,24,78,1
1776066725.7176645,24,78,1
1776066725.7258244,24,80,1
1776066725.7278361,24,80,1
1776066725.7278361,24,80,1
1776066725.7298484,22,80,1
1776066725.7318614,22,80,1
1776066725.7429416,22,80,1
1776066725.745866,22,78,1
1776066725.75793,24,78,1
1776066725.7741272,24,80,1
1776066725.7803013,24,80,1
1776066725.7928073,24,80,1
1776066725.8106134,24,82,1
1776066725.8230932,24,80,1
1776066725.8347647,26,80,1
1776066725.843327,26,80,1
1776066725.843327,24,80,1
1776066725.845343,24,78,1
1776066725.845343,24,78,1
1776066725.847356,24,78,1
1776066725.8493707,24,78,1
1776066725.8493707,24,82,1
1776066725.8493707,24,82,1
1776066725.8513823,24,82,1
1776066725.8513823,24,84,1
1776066725.8564906,24,82,1
1776066725.8573737,24,82,1
1776066725.858468,24,80,1
1776066725.858468,24,82,1
1776066725.858468,24,82,1
1776066725.8595624,24,82,1
1776066725.860187,24,84,1
1776066725.860187,24,84,1
1776066725.860187,24,82,1
1776066725.8615072,24,82,1
1776066725.8627787,24,82,1
1776066725.8644629,24,82,1
1776066725.8649755,24,80,1
1776066725.8649755,24,80,1
1776066725.8659327,22,82,1
1776066725.8659327,22,82,1
1776066725.8669,22,84,1
1776066725.8679206,22,86,1
1776066725.8679206,22,86,1
1776066725.8722749,24,86,1
1776066725.8748562,24,88,1
1776066725.8748562,24,88,1
1776066725.8748562,26,86,1
1776066725.8763664,26,86,1
1776066725.8775434,26,86,1
1776066725.8775434,26,86,1
1776066725.8785722,26,88,1
1776066725.8810153,26,86,1
1776066725.8815556,26,86,1
1776066725.8815556,26,86,1
1776066725.8815556,26,86,1
1776066725.8815556,24,88,1
1776066725.8835669,24,86,1
1776066725.8835669,24,88,1
1776066725.8835669,24,90,1
1776066725.8835669,24,92,1
1776066725.8909633,24,96,1
1776066725.8909633,24,96,1
1776066725.8909633,24,98,1
1776066725.8929815,24,98,1
1776066725.8929815,24,100,1
1776066725.8929815,24,100,1
1776066725.893842,26,100,1
1776066725.8943884,26,98,1
1776066725.8943884,26,100,1
1776066725.8955235,26,102,1
1776066725.8967628,26,104,1
1776066725.8972301,26,104,1
1776066725.898237,26,102,1
1776066725.898237,24,102,1
1776066725.898237,24,100,1
1776066725.898997,24,100,1
1776066725.898997,24,100,1
1776066725.898997,24,100,1
1776066725.898997,24,102,1
1776066725.898997,24,102,1
1776066725.901006,24,106,1
1776066725.9055848,24,106,1
1776066725.9060915,24,106,1
1776066725.9069061,22,108,1
1776066725.9080203,22,106,1
1776066725.9080203,22,108,1
1776066725.9080203,22,106,1
1776066725.9080203,22,106,1
1776066725.9080203,22,108,1
1776066725.9080203,22,108,1
1776066725.9080203,20,110,1
1776066725.9080203,22,110,1
1776066725.9080203,20,110,1
1776066725.9080203,22,108,1
1776066725.9080203,20,108,1
1776066725.9080203,20,108,1
1776066725.9080203,22,106,1
1776066725.9080203,20,106,1
1776066725.9080203,22,106,1
1776066725.9080203,22,106,1
1776066725.9141226,22,108,1
1776066725.9141226,22,110,1
1776066725.9151037,22,110,1
1776066725.9151037,20,110,1
1776066725.9151037,22,110,1
1776066725.9151037,20,110,1
1776066725.9151037,20,106,1
1776066725.9151037,20,106,1
1776066725.9151037,20,106,1
1776066725.9151037,18,106,1
1776066725.9151037,18,106,1
1776066725.9151037,18,108,1
1776066725.92197,18,106,1
1776066725.9223795,18,110,1
1776066725.9223795,18,108,1
1776066725.9223795,18,110,1
1776066725.9223795,18,108,1
1776066725.9252074,18,108,1
1776066725.9252074,18,108,1
1776066725.9252074,18,108,1
1776066725.9252074,20,110,1
1776066725.9252074,20,110,1
1776066725.9252074,20,108,1
1776066725.9252074,20,110,1
1776066725.9252074,20,108,1
1776066725.9252074,20,108,1
1776066725.9252074,20,104,1
1776066725.9252074,20,104,1
1776066725.9252074,20,104,1
1776066725.9252074,20,104,1
1776066725.9252074,20,104,1
1776066725.9314454,18,106,1
1776066725.9314454,18,104,1
1776066725.9314454,18,102,1
1776066725.9314454,18,102,1
1776066725.9314454,18,102,1
1776066725.9314454,18,102,1
1776066725.9314454,18,102,1
1776066725.9314454,18,104,1
1776066725.9339802,18,104,1
1776066725.9339802,18,106,1
1776066725.9339802,20,106,1
1776066725.9339802,20,104,1
1776066725.93744,20,106,1
1776066725.940029,20,104,1
1776066725.9403467,20,104,1
1776066725.9403467,20,100,1
1776066725.9403467,20,102,1
1776066725.9403467,20,102,1
1776066725.9403467,20,102,1
1776066725.9403467,20,104,1
1776066725.9403467,20,104,1
1776066725.9403467,20,104,1
1776066725.9403467,20,104,1
1776066725.9439807,20,104,1
1776066725.9439807,20,106,1
1776066725.9439807,22,104,1
1776066725.9439807,22,106,1
1776066725.9439807,22,106,1
1776066725.9439807,20,106,1
1776066725.9439807,20,108,1
1776066725.9439807,20,110,1
1776066725.9439807,20,110,1
1776066725.9439807,22,112,1
1776066725.9439807,22,114,1
1776066725.9439807,22,112,1
1776066725.9493563,22,112,1
1776066725.9513693,22,110,1
1776066725.9513693,22,108,1
1776066725.9513693,22,110,1
1776066725.9553962,22,112,1
1776066725.9572403,22,114,1
1776066725.9577467,22,116,1
1776066725.9577467,22,118,1
1776066725.9577467,22,120,1
1776066725.9577467,22,120,1
1776066725.9577467,22,120,1
1776066725.9577467,22,118,1
1776066725.9577467,22,120,1
1776066725.9577467,22,120,1
1776066725.9577467,22,124,1
1776066725.9577467,22,124,1
1776066725.9577467,22,126,1
1776066725.9577467,20,126,1
1776066725.9577467,20,126,1
1776066725.9624226,20,124,1
1776066725.9634123,20,122,1
1776066725.9641314,20,120,1
1776066725.9641314,20,120,1
1776066725.9641314,20,122,1
1776066725.9641314,20,124,1
1776066725.9641314,22,126,1
1776066725.965874,22,128,1
1776066725.965874,22,130,1
1776066725.965874,22,130,1
1776066725.965874,22,130,1
1776066725.965874,22,128,1
1776066725.9690163,22,130,1
1776066725.9718301,22,132,1
1776066725.972236,24,134,1
1776066725.972236,24,138,1
1776066725.974106,24,140,1
1776066725.9748664,24,140,1
1776066725.9757073,24,142,1
1776066725.9757073,24,140,1
1776066725.9757073,24,140,1
1776066725.9767172,24,138,1
1776066725.9767172,24,136,1
1776066725.9767172,24,136,1
1776066725.9767172,24,138,1
1776066725.9767172,24,138,1
1776066725.9767172,26,136,1
1776066725.9767172,26,134,1
1776066725.9767172,26,136,1
1776066725.9767172,26,134,1
1776066725.9767172,26,134,1
1776066725.9767172,26,130,1
1776066725.9767172,24,130,1
1776066725.9814074,24,130,1
1776066725.981918,24,130,1
1776066725.9830875,24,130,1
1776066725.9830875,26,132,1
1776066725.9830875,24,130,1
1776066725.9902306,26,132,1
1776066725.9906003,26,132,1
1776066725.99175,26,132,1
1776066725.99175,26,130,1
1776066725.99175,24,130,1
1776066725.99175,24,128,1
1776066725.99175,24,130,1
1776066725.99175,24,130,1
1776066725.99175,24,130,1
1776066725.99175,24,132,1
1776066725.99175,24,132,1
1776066725.9968839,24,134,1
1776066725.998246,22,132,1
1776066725.9985688,22,130,1
1776066725.9985688,22,130,1
1776066725.9985688,22,126,1
1776066725.9985688,22,126,1
1776066725.9985688,22,126,1
1776066725.9985688,22,126,1
1776066725.9985688,22,124,1
1776066726.0062573,22,124,1
1776066726.008267,24,120,1
1776066726.008267,22,120,1
1776066726.008267,24,118,1
1776066726.008267,24,118,1
1776066726.008267,24,118,1
1776066726.0122118,24,118,1
1776066726.0138483,24,120,1
1776066726.0138483,24,122,1
1776066726.0138483,24,120,1
1776066726.0138483,22,122,1
1776066726.0138483,22,122,1
1776066726.0138483,22,120,1
1776066726.0138483,22,118,1
1776066726.0138483,20,116,1
1776066726.0138483,20,112,1
1776066726.0188498,20,112,1
1776066726.0188498,20,112,1
1776066726.0205414,22,112,1
1776066726.024283,20,108,1
1776066726.0255256,20,110,1
1776066726.0267355,20,106,1
1776066726.0271213,20,106,1
1776066726.0271213,20,100,1
1776066726.0271213,20,102,1
1776066726.0271213,20,104,1
1776066726.0271213,20,106,1
1776066726.0271213,20,110,1
1776066726.0271213,20,110,1
1776066726.0271213,20,112,1
1776066726.0306451,20,112,1
1776066726.0306451,20,112,1
1776066726.031742,20,112,1
1776066726.0327983,20,114,1
1776066726.0331132,20,112,1
1776066726.0331132,20,112,1
1776066726.0331132,20,112,1
1776066726.0331132,20,114,1
1776066726.0331132,20,114,1
1776066726.0331132,20,116,1
1776066726.0331132,20,118,1
1776066726.038126,20,118,1
1776066726.038126,20,116,1
1776066726.038126,20,114,1
1776066726.038126,20,114,1
1776066726.038126,20,114,1
1776066726.038126,20,114,1
1776066726.038126,20,114,1
1776066726.038126,22,114,1
1776066726.038126,22,116,1
1776066726.038126,24,116,1
1776066726.038126,24,118,1
1776066726.038126,26,118,1
1776066726.0450463,26,116,1
1776066726.0450463,26,116,1
1776066726.0450463,26,114,1
1776066726.0450463,26,112,1
1776066726.0450463,26,112,1
1776066726.0450463,26,112,1
1776066726.0450463,26,112,1
1776066726.0450463,26,114,1
1776066726.0450463,26,116,1
1776066726.0450463,26,114,1
1776066726.0450463,26,114,1
1776066726.0450463,26,114,1
1776066726.0450463,26,114,1
1776066726.0450463,26,116,1
1776066726.0450463,26,118,1
1776066726.050113,26,120,1
1776066726.0510862,26,118,1
1776066726.0510862,26,120,1
1776066726.0510862,26,120,1
1776066726.0510862,26,118,1
1776066726.056002,26,116,1
1776066726.0565093,26,114,1
1776066726.0565093,26,112,1
1776066726.0582504,26,114,1
1776066726.0582504,26,114,1
1776066726.0590417,26,118,1
1776066726.0590417,26,124,1
1776066726.0590417,26,124,1
1776066726.0590417,26,130,1
1776066726.0612864,26,128,1
1776066726.0612864,26,128,1
1776066726.0651317,26,126,1
1776066726.066081,26,128,1
1776066726.066081,24,128,1
1776066726.066081,26,132,1
1776066726.066081,26,132,1
1776066726.066081,26,130,1
1776066726.066081,26,132,1
1776066726.0725915,26,130,1
1776066726.0738223,26,128,1
1776066726.0747721,26,126,1
1776066726.0747721,26,126,1
1776066726.0747721,26,126,1
1776066726.0747721,26,128,1
1776066726.0769532,26,130,1
1776066726.0778534,26,132,1
1776066726.0816607,26,132,1
1776066726.0816607,28,132,1
1776066726.0816607,26,132,1
1776066726.0863345,26,132,1
1776066726.0873024,26,130,1
1776066726.0892606,26,130,1
1776066726.0892606,26,128,1
1776066726.0892606,26,132,1
1776066726.0904942,26,134,1
1776066726.0904942,26,136,1
1776066726.0915623,28,136,1
1776066726.0915623,26,138,1
1776066726.0915623,26,138,1
1776066726.0915623,26,136,1
1776066726.0915623,26,132,1
1776066726.0915623,24,132,1
1776066726.0943198,24,132,1
1776066726.0960968,22,132,1
1776066726.0960968,22,136,1
1776066726.0960968,22,136,1
1776066726.0960968,22,138,1
1776066726.0960968,22,140,1
1776066726.0960968,22,144,1
1776066726.0960968,20,144,1
1776066726.0960968,20,146,1
1776066726.0960968,20,150,1
1776066726.0960968,22,148,1
1776066726.0960968,22,152,1
1776066726.0960968,22,154,1
1776066726.0960968,24,158,1
1776066726.0960968,24,158,1
1776066726.1020205,24,158,1
1776066726.1020205,24,158,1
1776066726.1020205,24,156,1
1776066726.1020205,24,156,1
1776066726.1044517,24,154,1
1776066726.1044517,24,156,1
1776066726.1053994,24,156,1
1776066726.1053994,24,160,1
1776066726.1079922,24,160,1
1776066726.1079922,24,164,1
1776066726.1086853,24,162,1
1776066726.1086853,24,164,1
1776066726.1086853,24,160,1
1776066726.1086853,24,156,1
1776066726.1104283,24,154,1
1776066726.1104283,24,150,1
1776066726.1104283,24,148,1
1776066726.1104283,24,148,1
1776066726.1104283,24,146,1
1776066726.1104283,24,144,1
1776066726.1104283,24,144,1
1776066726.1104283,26,142,1
1776066726.1129782,24,140,1
1776066726.1129782,26,136,1
1776066726.1129782,26,134,1
1776066726.1129782,26,132,1
1776066726.1129782,26,134,1
1776066726.1129782,26,134,1
1776066726.1129782,26,132,1
1776066726.1129782,24,132,1
1776066726.1129782,26,132,1
1776066726.1129782,24,128,1
1776066726.1129782,24,126,1
1776066726.1177046,24,124,1
1776066726.1177046,24,124,1
1776066726.1187143,24,124,1
1776066726.1199327,24,122,1
1776066726.1206942,24,124,1
1776066726.1206942,24,124,1
1776066726.1206942,24,124,1
1776066726.1206942,24,124,1
1776066726.1206942,24,124,1
1776066726.12401,24,120,1
1776066726.1246333,24,118,1
1776066726.1246333,24,114,1
1776066726.1246333,24,114,1
1776066726.1246333,24,116,1
1776066726.1246333,26,118,1
1776066726.1270006,26,120,1
1776066726.1270006,24,118,1
1776066726.1270006,24,120,1
1776066726.1270006,24,118,1
1776066726.1270006,24,116,1
1776066726.1299286,24,112,1
1776066726.1299286,24,112,1
1776066726.1299286,24,110,1
1776066726.1406584,26,108,1
1776066726.1406584,26,106,1
1776066726.1406584,26,102,1
1776066726.1406584,26,104,1
1776066726.1406584,24,100,1
1776066726.1488473,24,100,1
1776066726.1488473,24,98,1
1776066726.1560082,22,98,1
1776066726.1560082,22,96,1
1776066726.1560082,22,94,1
1776066726.1560082,24,96,1
1776066726.1560082,24,96,1
1776066726.1560082,24,100,1
1776066726.1601355,22,98,1
1776066726.1601355,22,100,1
1776066726.1601355,22,100,1
1776066726.1601355,22,100,1
1776066726.1601355,22,98,1
1776066726.1601355,22,102,1
1776066726.1601355,22,100,1
1776066726.1601355,22,102,1
1776066726.1601355,22,104,1
1776066726.1601355,22,108,1
1776066726.1601355,22,110,1
1776066726.1601355,22,112,1
1776066726.1601355,22,116,1
1776066726.1601355,22,116,1
1776066726.1601355,22,116,1
1776066726.1601355,22,116,1
1776066726.1601355,20,116,1
1776066726.1601355,20,118,1
1776066726.1601355,20,118,1
1776066726.1601355,20,120,1
1776066726.1601355,20,120,1
1776066726.1601355,20,122,1
1776066726.1601355,20,124,1
1776066726.1601355,20,124,1
1776066726.1601355,20,124,1
1776066726.1601355,20,124,1
1776066726.1601355,20,124,1
1776066726.1601355,20,124,1
1776066726.1601355,20,122,1
1776066726.1601355,20,122,1
1776066726.1601355,20,120,1
1776066726.1601355,20,118,1
1776066726.1601355,20,120,1
1776066726.1601355,20,116,1
1776066726.1601355,20,118,1
1776066726.1601355,20,114,1
1776066726.1601355,18,114,1
1776066726.1601355,20,114,1
1776066726.1681945,18,114,1
1776066726.1702049,18,116,1
1776066726.172213,18,114,1
1776066726.1748934,18,114,1
1776066726.1748934,18,116,1
1776066726.1748934,18,112,1
1776066726.1766505,18,110,1
1776066726.1771593,18,110,1
1776066726.1771593,18,110,1
1776066726.1771593,18,112,1
1776066726.1771593,18,112,1
1776066726.1771593,18,112,1
1776066726.1771593,18,110,1
1776066726.1771593,18,110,1
1776066726.1771593,18,108,1
1776066726.1771593,18,108,1
1776066726.1771593,18,110,1
1776066726.1771593,18,108,1
1776066726.1771593,18,110,1
1776066726.1851656,18,110,1
1776066726.1851656,18,110,1
1776066726.186517,18,110,1
1776066726.1881797,18,108,1
1776066726.1881797,18,108,1
1776066726.1881797,18,106,1
1776066726.1948817,16,104,1
1776066726.1968818,16,104,1
1776066726.198207,16,102,1
1776066726.198207,16,100,1
1776066726.2029486,16,100,1
1776066726.2048786,16,102,1
1776066726.206207,16,100,1
1776066726.206207,16,100,1
1776066726.2108822,16,98,1
1776066726.2128341,16,96,1
1776066726.2142072,16,92,1
1776066726.2142072,16,88,1
1776066726.219124,18,86,1
1776066726.2208552,18,84,1
1776066726.2222323,18,84,1
1776066726.2222323,18,82,1
1776066726.226514,18,84,1
1776066726.2290254,20,84,1
1776066726.2302575,20,86,1
1776066726.2302575,20,86,1
1776066726.2342567,20,84,1
1776066726.2360816,20,82,1
1776066726.2360816,18,78,1
1776066726.2360816,18,78,1
1776066726.2430248,18,76,1
1776066726.2444932,18,76,1
1776066726.2444932,18,76,1
1776066726.2444932,18,76,1
1776066726.250892,18,78,1
1776066726.2534487,18,78,1
1776066726.2534487,18,78,1
1776066726.2606194,20,80,1
1776066726.2610343,20,80,1
1776066726.2610343,20,78,1
1776066726.2610343,20,80,1
1776066726.2610343,20,78,1
1776066726.2675877,20,82,1
1776066726.269639,20,82,1
1776066726.269639,20,84,1
1776066726.272642,20,88,1
1776066726.2746565,20,84,1
1776066726.2758486,20,86,1
1776066726.2793663,20,86,1
1776066726.2793663,20,84,1
1776066726.2830327,20,88,1
1776066726.2859032,20,90,1
1776066726.2906365,20,92,1
1776066726.2906365,18,94,1
1776066726.2906365,18,96,1
1776066726.2906365,18,98,1
1776066726.2946746,20,100,1
1776066726.2946746,20,100,1
1776066726.2986357,20,102,1
1776066726.301023,22,102,1
1776066726.3032598,22,104,1
1776066726.303643,22,102,1
1776066726.3068233,22,104,1
1776066726.3068233,22,102,1
1776066726.3104463,22,104,1
1776066726.3104463,22,106,1
1776066726.3152468,22,106,1
1776066726.3173726,22,108,1
1776066726.3191738,22,108,1
1776066726.3195744,22,110,1
1776066726.3233163,22,112,1
1776066726.3253038,22,112,1
1776066726.3264859,22,118,1
1776066726.3264859,22,114,1
1776066726.3313463,22,120,1
1776066726.3332965,22,120,1
1776066726.3354497,22,120,1
1776066726.3354497,22,120,1
1776066726.3393774,22,120,1
1776066726.341336,22,120,1
1776066726.3425064,22,122,1
1776066726.3425064,22,122,1
1776066726.3473523,22,126,1
1776066726.349337,24,126,1
1776066726.3504958,22,130,1
1776066726.3525205,24,132,1
1776066726.354998,24,132,1
1776066726.3575594,24,132,1
1776066726.3585157,24,128,1
1776066726.3585157,24,128,1
1776066726.363483,24,128,1
1776066726.365501,24,128,1
1776066726.3671954,24,130,1
1776066726.370242,26,130,1
1776066726.371534,26,134,1
1776066726.3735082,26,136,1
1776066726.3744428,26,136,1
1776066726.377402,26,140,1
1776066726.379523,26,142,1
1776066726.3806171,26,142,1
1776066726.3806171,26,144,1
1776066726.3865516,26,144,1
1776066726.3865516,28,146,1
1776066726.3892198,28,148,1
1776066726.3892198,28,148,1
1776066726.393293,28,152,1
1776066726.3955328,28,150,1
1776066726.3965812,28,150,1
1776066726.3965812,28,150,1
1776066726.4008653,28,146,1
1776066726.402688,28,148,1
1776066726.4049313,26,146,1
1776066726.4049313,26,146,1
1776066726.4095664,26,148,1
1776066726.4115102,26,146,1
1776066726.4126196,26,146,1
1776066726.4126196,26,142,1
1776066726.417266,28,140,1
1776066726.4193556,28,140,1
1776066726.420611,28,136,1
1776066726.420611,28,136,1
1776066726.425138,26,136,1
1776066726.4276228,26,136,1
1776066726.428624,24,136,1
1776066726.428624,26,136,1
1776066726.433436,24,140,1
1776066726.4350824,26,136,1
1776066726.4361289,24,138,1
1776066726.4361289,26,136,1
1776066726.4412463,26,134,1
1776066726.4435694,26,134,1
1776066726.4448571,26,132,1
1776066726.4448571,28,134,1
1776066726.4496121,28,136,1
1776066726.4506829,28,132,1
1776066726.4531324,28,134,1
1776066726.4531324,30,130,1
1776066726.4578292,28,130,1
1776066726.4598167,28,128,1
1776066726.4598167,28,130,1
1776066726.4598167,28,128,1
1776066726.4651625,28,130,1
1776066726.4673815,28,130,1
1776066726.469558,28,132,1
1776066726.4711034,28,130,1
1776066726.4735389,26,130,1
1776066726.4755316,26,128,1
1776066726.4774806,26,128,1
1776066726.4783657,24,126,1
1776066726.4783657,24,126,1
1776066726.4831326,24,128,1
1776066726.486472,24,130,1
1776066726.486472,24,134,1
1776066726.4888802,24,136,1
1776066726.4916406,24,138,1
1776066726.4935513,24,140,1
1776066726.495659,24,140,1
1776066726.49672,24,140,1
1776066726.4997125,24,140,1
1776066726.5032275,22,138,1
1776066726.5032275,24,140,1
1776066726.5057447,24,138,1
1776066726.5077202,24,138,1
1776066726.509428,24,138,1
1776066726.510464,24,138,1
1776066726.510464,22,140,1
1776066726.510464,22,136,1
1776066726.5168662,22,136,1
1776066726.5195374,22,138,1
1776066726.5195374,22,134,1
1776066726.5195374,22,138,1
1776066726.5256417,22,136,1
1776066726.527751,22,138,1
1776066726.5287828,22,140,1
1776066726.531373,24,140,1
1776066726.533369,24,144,1
1776066726.5361202,24,142,1
1776066726.5381274,24,142,1
1776066726.5389102,24,142,1
1776066726.54163,24,142,1
1776066726.54163,24,146,1
1776066726.5449433,24,146,1
1776066726.5449433,24,148,1
1776066726.5449433,24,152,1
1776066726.5538406,24,150,1
1776066726.5546567,24,154,1
1776066726.5546567,24,154,1
1776066726.5546567,24,156,1
1776066726.5577512,26,156,1
1776066726.5616677,26,154,1
1776066726.563759,26,156,1
1776066726.5658293,26,154,1
1776066726.5674176,24,156,1
1776066726.5693161,24,156,1
1776066726.570833,24,156,1
1776066726.5738423,24,158,1
1776066726.57553,24,156,1
1776066726.577539,24,154,1
1776066726.577539,22,154,1
1776066726.5814555,22,152,1
1776066726.583774,22,150,1
1776066726.5857909,22,150,1
1776066726.5862522,24,148,1
1776066726.589937,24,146,1
1776066726.5915647,24,146,1
1776066726.5915647,24,146,1
1776066726.5951989,24,146,1
1776066726.5978637,24,146,1
1776066726.598922,24,148,1
1776066726.6006918,26,146,1
1776066726.602881,24,148,1
1776066726.6051815,24,148,1
1776066726.6051815,24,150,1
1776066726.6096983,24,150,1
1776066726.6118317,24,150,1
1776066726.6129184,24,152,1
1776066726.6129184,24,148,1
1776066726.6175044,24,148,1
1776066726.6197047,24,148,1
1776066726.6207676,24,146,1
1776066726.6207676,24,146,1
1776066726.625515,26,146,1
1776066726.625515,24,146,1
1776066726.6285136,26,144,1
1776066726.6314025,24,144,1
1776066726.6314025,26,146,1
1776066726.636078,26,144,1
1776066726.636078,26,144,1
1776066726.6390047,26,142,1
1776066726.6418076,26,140,1
1776066726.643151,26,144,1
1776066726.643151,24,142,1
1776066726.6479433,26,142,1
1776066726.6490908,24,142,1
1776066726.651175,24,140,1
1776066726.6546443,24,144,1
1776066726.6578894,24,140,1
1776066726.6591916,24,142,1
1776066726.6591916,24,144,1
1776066726.6591916,24,142,1
1776066726.6591916,24,146,1
1776066726.666246,26,144,1
1776066726.6676347,26,148,1
1776066726.6713805,26,148,1
1776066726.6731207,26,150,1
1776066726.674422,26,152,1
1776066726.6758053,26,148,1
1776066726.6775997,26,148,1
1776066726.6775997,26,150,1
1776066726.6828578,26,146,1
1776066726.6836867,26,146,1
1776066726.6836867,26,144,1
1776066726.6923032,26,142,1
1776066726.6923032,26,142,1
1776066726.6943145,26,140,1
1776066726.6943145,26,142,1
1776066726.6943145,26,140,1
1776066726.7009842,26,140,1
1776066726.707669,26,140,1
1776066726.709679,26,138,1
1776066726.709679,26,142,1
1776066726.7129772,26,142,1
1776066726.7149904,26,144,1
1776066726.72736,26,144,1
1776066726.7314065,26,146,1
1776066726.7417722,26,146,1
1776066726.7461805,26,146,1
1776066726.7461805,26,146,1
1776066726.7653103,26,150,1
1776066726.7653103,26,146,1
1776066726.7678063,26,148,1
1776066726.7678063,28,148,1
1776066726.7742016,28,148,1
1776066726.7742016,28,148,1
1776066726.7782474,28,148,1
1776066726.7839751,28,150,1
1776066726.7839751,28,146,1
1776066726.7924674,28,146,1
1776066726.7969687,28,144,1
1776066726.7980354,28,142,1
1776066726.7985973,28,142,1
1776066726.799302,28,142,1
1776066726.8022978,28,140,1
1776066726.8038273,28,142,1
1776066726.805998,28,140,1
1776066726.806558,26,144,1
1776066726.8322444,26,140,1
1776066726.8418615,26,142,1
1776066726.8587673,26,140,1
1776066726.8745477,26,140,1
1776066726.876559,26,142,1
1776066726.9156127,26,142,1
1776066726.9291167,26,142,1
1776066726.9354532,26,144,1
1776066726.9410427,26,146,1
1776066726.9455109,28,150,1
1776066726.9488904,28,148,1
1776066726.9559324,28,150,1
1776066726.9603684,28,150,1
1776066726.9603684,28,148,1
1776066726.9628747,28,150,1
1776066726.9651465,26,146,1
1776066726.9662547,26,146,1
1776066726.9737887,26,146,1
1776066726.975807,26,144,1
1776066726.976316,26,144,1
1776066726.9804075,26,142,1
1776066726.9884958,26,140,1
1776066726.991567,26,136,1
1776066726.998463,24,132,1
1776066727.007879,26,132,1
1776066727.0112274,26,130,1
1776066727.0152457,26,130,1
1776066727.0202334,26,130,1
1776066727.0242488,26,132,1
1776066727.031635,26,136,1
1776066727.038066,26,134,1
1776066727.0401182,24,138,1
1776066727.0401182,24,138,1
1776066727.0421271,24,138,1
1776066727.0421271,24,142,1
1776066727.0421271,26,140,1
1776066727.04387,26,142,1
1776066727.045978,26,144,1
1776066727.046486,26,144,1
1776066727.0476072,26,150,1
1776066727.0481138,26,146,1
1776066727.048882,26,148,1
1776066727.048882,26,148,1
1776066727.054901,26,146,1
1776066727.0568464,26,148,1
1776066727.0568464,26,146,1
1776066727.0568464,26,148,1
1776066727.058858,24,148,1
1776066727.058858,24,148,1
1776066727.0603662,24,152,1
1776066727.0603662,24,148,1
1776066727.0641432,22,150,1
1776066727.0655432,22,148,1
1776066727.068491,22,146,1
1776066727.0760715,22,148,1
1776066727.0760715,22,148,1
1776066727.0771773,22,150,1
1776066727.0776856,22,150,1
1776066727.078527,22,150,1
1776066727.078527,22,152,1
1776066727.079826,22,152,1
1776066727.079826,22,154,1
1776066727.079826,24,156,1
1776066727.0822442,24,152,1
1776066727.0872803,24,156,1
1776066727.0922394,24,154,1
1776066727.095369,24,154,1
1776066727.095369,24,156,1
1776066727.0973766,24,154,1
1776066727.0993862,24,158,1
1776066727.0993862,24,154,1
1776066727.101974,24,156,1
1776066727.1058104,24,156,1
1776066727.1085927,24,152,1
1776066727.109149,26,156,1
1776066727.109149,26,154,1
1776066727.1102097,26,154,1
1776066727.1102097,26,156,1
1776066727.111179,26,154,1
1776066727.111179,26,158,1
1776066727.1117365,26,156,1
1776066727.1117365,26,158,1
1776066727.1117365,26,158,1
1776066727.1142619,26,158,1
1776066727.1158738,26,160,1
1776066727.1158738,26,160,1
1776066727.1166656,26,162,1
1776066727.1200662,26,162,1
1776066727.1209989,26,162,1
1776066727.1228654,26,164,1
1776066727.123292,26,162,1
1776066727.123292,26,164,1
1776066727.1242986,26,162,1
1776066727.1250348,28,160,1
1776066727.125701,28,162,1
1776066727.125701,30,158,1
1776066727.125701,30,160,1
1776066727.1283624,30,160,1
1776066727.1292663,30,158,1
1776066727.1292663,30,162,1
1776066727.1292663,30,160,1
1776066727.1310854,30,162,1
1776066727.1310854,30,164,1
1776066727.1324875,30,160,1
1776066727.1329932,30,164,1
1776066727.1384435,30,162,1
1776066727.13904,30,162,1
1776066727.1407964,30,162,1
1776066727.1407964,30,160,1
1776066727.1407964,30,162,1
1776066727.1407964,32,162,1
1776066727.1407964,32,162,1
1776066727.1428046,32,164,1
1776066727.1428046,32,162,1
1776066727.1428046,32,164,1
1776066727.1428046,32,162,1
1776066727.1428046,32,162,1
1776066727.1461658,34,162,1
1776066727.146565,34,160,1
1776066727.146565,34,162,1
1776066727.146565,34,164,1
1776066727.146565,34,164,1
1776066727.146565,34,168,1
1776066727.146565,34,164,1
1776066727.1488736,34,168,1
1776066727.1488736,34,166,1
1776066727.1488736,34,164,1
1776066727.1488736,34,166,1
1776066727.1488736,34,164,1
1776066727.1504452,34,164,1
1776066727.1557872,34,164,1
1776066727.1557872,34,164,1
1776066727.1557872,34,168,1
1776066727.1578176,34,164,1
1776066727.1578176,34,166,1
1776066727.1578176,34,164,1
1776066727.1578176,34,162,1
1776066727.1578176,34,162,1
1776066727.1578176,34,158,1
1776066727.1578176,34,160,1
1776066727.1578176,34,158,1
1776066727.161092,34,158,1
1776066727.161092,34,160,1
1776066727.1625695,34,154,1
1776066727.1625695,34,158,1
1776066727.1625695,34,154,1
1776066727.1625695,32,152,1
1776066727.1625695,32,152,1
1776066727.1625695,32,150,1
1776066727.1625695,32,152,1
1776066727.1625695,32,150,1
1776066727.1655612,32,150,1
1776066727.1655612,32,150,1
1776066727.166519,32,148,1
1776066727.1682746,32,150,1
1776066727.17016,32,148,1
1776066727.17016,32,148,1
1776066727.173043,32,148,1
1776066727.1740324,30,146,1
1776066727.1740324,30,148,1
1776066727.1740324,30,146,1
1776066727.1740324,28,146,1
1776066727.1740324,28,150,1
1776066727.1767852,28,146,1
1776066727.1767852,28,146,1
1776066727.1767852,28,144,1
1776066727.1767852,28,140,1
1776066727.1777933,26,140,1
1776066727.1777933,26,136,1
1776066727.1777933,26,138,1
1776066727.1777933,26,138,1
1776066727.1792603,26,138,1
1776066727.1792603,26,144,1
1776066727.1811013,26,140,1
1776066727.1811013,24,142,1
1776066727.1818955,26,140,1
1776066727.1818955,26,138,1
1776066727.1818955,26,136,1
1776066727.1818955,26,134,1
1776066727.1818955,26,134,1
1776066727.1818955,26,134,1
1776066727.1818955,24,134,1
1776066727.1854146,24,138,1
1776066727.1874297,24,136,1
1776066727.188665,24,136,1
1776066727.188665,24,134,1
1776066727.1918774,24,132,1
1776066727.1918774,24,132,1
1776066727.1918774,24,130,1
1776066727.1918774,24,130,1
1776066727.1918774,24,132,1
1776066727.1918774,24,132,1
1776066727.1949515,26,136,1
1776066727.1949515,26,134,1
1776066727.1949515,26,134,1
1776066727.1949515,24,134,1
1776066727.1949515,24,132,1
1776066727.1983185,24,132,1
1776066727.1983185,24,132,1
1776066727.2008595,24,134,1
1776066727.2008595,24,132,1
1776066727.2062292,24,134,1
1776066727.2079542,24,138,1
1776066727.2079542,22,138,1
1776066727.2079542,22,140,1
1776066727.2079542,24,140,1
1776066727.2079542,24,140,1
1776066727.2079542,24,140,1
1776066727.2079542,26,138,1
1776066727.2079542,26,140,1
1776066727.2079542,26,138,1
1776066727.2079542,26,140,1
1776066727.2079542,26,142,1
1776066727.2079542,26,142,1
1776066727.2079542,26,144,1
1776066727.2079542,26,144,1
1776066727.2079542,26,144,1
1776066727.2150602,28,144,1
1776066727.2155397,28,142,1
1776066727.2159238,28,144,1
1776066727.2159238,28,144,1
1776066727.2159238,26,146,1
1776066727.2159238,26,150,1
1776066727.2159238,26,146,1
1776066727.2208447,26,152,1
1776066727.2232277,26,148,1
1776066727.2243354,28,148,1
1776066727.2243354,28,150,1
1776066727.2243354,28,148,1
1776066727.226344,28,150,1
1776066727.226344,30,150,1
1776066727.2283666,30,152,1
1776066727.2283666,30,156,1
1776066727.2283666,32,154,1
1776066727.2283666,32,154,1
1776066727.2283666,34,152,1
1776066727.2283666,34,150,1
1776066727.2283666,34,150,1
1776066727.2327332,34,150,1
1776066727.2327332,34,152,1
1776066727.2384887,34,150,1
1776066727.2394838,34,154,1
1776066727.2419858,34,156,1
1776066727.242387,34,154,1
1776066727.242387,34,158,1
1776066727.2457428,34,156,1
1776066727.247749,34,154,1
1776066727.2500637,34,154,1
1776066727.2539673,34,152,1
1776066727.255354,34,154,1
1776066727.256915,34,152,1
1776066727.258202,32,154,1
1776066727.258202,32,156,1
1776066727.2617676,32,154,1
1776066727.2867677,32,154,1
1776066727.2887807,34,154,1
1776066727.2887807,32,152,1
1776066727.2897906,34,152,1
1776066727.301172,34,150,1
1776066727.3451529,36,150,1
1776066727.3786998,36,148,1
1776066727.4034271,34,150,1
1776066727.405699,34,152,1
1776066727.4289124,34,150,1
1776066727.4520755,34,152,1
1776066727.4560912,34,148,1
1776066727.4601068,34,146,1
1776066727.463859,36,144,1
1776066727.4658706,36,140,1
1776066727.4658706,36,138,1
1776066727.4658706,36,138,1
1776066727.4678786,34,138,1
1776066727.4678786,36,142,1
1776066727.4678786,34,140,1
1776066727.4678786,34,142,1
1776066727.4698884,34,140,1
1776066727.4698884,34,140,1
1776066727.4698884,36,140,1
1776066727.4718974,36,136,1
1776066727.4994693,36,138,1
1776066727.4994693,36,138,1
1776066727.4994693,34,138,1
1776066727.4994693,34,142,1
1776066727.4994693,34,140,1
1776066727.4994693,34,140,1
1776066727.5014753,34,138,1
1776066727.5014753,34,134,1
1776066727.5014753,36,134,1
1776066727.5014753,36,132,1
1776066727.5014753,36,134,1
1776066727.5014753,38,130,1
1776066727.5014753,36,130,1
1776066727.5034814,36,134,1
1776066727.5034814,36,130,1
1776066727.5034814,36,132,1
1776066727.5034814,36,130,1
1776066727.5034814,36,128,1
1776066727.5054874,36,130,1
1776066727.5054874,36,126,1
1776066727.5054874,34,130,1
1776066727.5054874,36,128,1
1776066727.5054874,34,130,1
1776066727.5054874,36,134,1
1776066727.5054874,34,130,1
1776066727.5074942,36,134,1
1776066727.5074942,36,132,1
1776066727.5074942,36,130,1
1776066727.5074942,36,130,1
1776066727.5074942,36,128,1
1776066727.5074942,36,132,1
1776066727.5095005,36,130,1
1776066727.5095005,36,134,1
1776066727.5095005,36,136,1
1776066727.5887098,36,136,1
1776066727.621718,36,138,1
1776066727.6571834,36,138,1
1776066727.6895301,36,138,1
1776066727.7238524,36,136,1
1776066727.7551281,36,136,1
1776066727.7856848,36,138,1
1776066727.798695,36,138,1
1776066727.8062098,34,140,1
1776066727.8102326,34,144,1
1776066727.8158302,34,144,1
1776066727.8372939,34,144,1
1776066727.8547044,34,144,1
1776066727.8732336,34,140,1
1776066727.880417,34,140,1
1776066727.8868406,34,138,1
1776066727.8932052,34,138,1
1776066727.897355,34,140,1
1776066727.897355,34,140,1
1776066727.9059067,34,146,1
1776066727.9079168,34,148,1
1776066727.9094255,32,150,1
1776066727.916411,32,150,1
1776066727.920761,32,148,1
1776066727.9225032,32,150,1
1776066727.9263883,32,146,1
1776066727.9263883,32,146,1
1776066727.9263883,32,144,1
1776066727.9283965,30,146,1
1776066727.9289198,30,148,1
1776066727.9289198,30,146,1
1776066727.9289198,30,146,1
1776066727.930659,30,146,1
1776066727.9310615,30,144,1
1776066727.9310615,30,144,1
1776066727.9320748,32,142,1
1776066727.9320748,30,144,1
1776066727.9330297,30,144,1
1776066727.9358926,28,146,1
1776066727.9372902,28,148,1
1776066727.9393,28,148,1
1776066727.9399948,28,150,1
1776066727.9409494,28,148,1
1776066727.9409494,28,146,1
1776066727.941956,28,146,1
1776066727.942499,28,146,1
1776066727.94328,28,146,1
1776066727.94328,28,146,1
1776066727.94417,28,146,1
1776066727.9457405,28,150,1
1776066727.9461813,28,146,1
1776066727.9461813,28,148,1
1776066727.9470613,28,146,1
1776066727.947693,26,144,1
1776066727.947693,26,144,1
1776066727.948672,26,140,1
1776066727.948672,26,142,1
1776066727.9493887,26,144,1
1776066727.9538474,26,144,1
1776066727.9538474,26,148,1
1776066727.9564195,26,144,1
1776066727.9584334,26,146,1
1776066727.9605398,26,144,1
1776066727.9652376,26,144,1
1776066727.9652376,26,144,1
1776066727.975778,26,144,1
1776066727.9783018,26,144,1
1776066727.9796858,26,140,1
1776066727.9810486,24,144,1
1776066727.9821513,24,146,1
1776066727.9904451,24,144,1
1776066727.9957268,24,148,1
1776066727.9977374,26,146,1
1776066727.9977374,26,146,1
1776066728.0149596,26,146,1
1776066728.0254452,26,144,1
1776066728.0307274,26,148,1
1776066728.040261,26,148,1
1776066728.062361,26,150,1
1776066728.090236,26,154,1
1776066728.1075196,26,154,1
1776066728.1411889,26,154,1
1776066728.1788125,26,152,1
1776066728.1941364,26,150,1
1776066728.2065377,26,150,1
1776066728.2126346,26,146,1
1776066728.2235124,26,148,1
1776066728.2341774,26,146,1
1776066728.246653,28,148,1
1776066728.2588668,26,152,1
1776066728.2650099,28,154,1
1776066728.2809138,26,156,1
1776066728.2914925,28,158,1
1776066728.2955465,28,160,1
1776066728.299426,28,160,1
1776066728.3119836,28,160,1
1776066728.3257842,28,164,1
1776066728.331754,28,160,1
1776066728.3413048,26,164,1
1776066728.3563318,26,166,1
1776066728.3605368,26,166,1
1776066728.3728652,28,170,1
1776066728.3773968,28,168,1
1776066728.3823056,28,168,1
1776066728.3965147,28,168,1
1776066728.4108915,28,166,1
1776066728.419765,28,168,1
1776066728.426966,28,168,1
1776066728.428977,28,170,1
1776066728.428977,28,174,1
1776066728.4311957,28,174,1
1776066728.4311957,28,178,1
1776066728.436829,28,176,1
1776066728.436829,28,176,1
1776066728.43898,28,176,1
1776066728.43898,28,174,1
1776066728.43898,26,176,1
1776066728.4409876,28,176,1
1776066728.4409876,28,176,1
1776066728.4409876,28,182,1
1776066728.4409876,28,180,1
1776066728.442994,28,182,1
1776066728.442994,28,180,1
1776066728.4450018,28,180,1
1776066728.4450018,28,180,1
1776066728.4450018,28,180,1
1776066728.4450018,28,182,1
1776066728.447009,28,178,1
1776066728.4615796,28,180,1
1776066728.465671,28,180,1
1776066728.4729242,28,180,1
1776066728.4729242,30,184,1
1776066728.474935,30,182,1
1776066728.474935,30,180,1
1776066728.4762268,30,178,1
1776066728.4762268,30,174,1
1776066728.4805908,28,176,1
1776066728.4809144,28,174,1
1776066728.4809144,28,176,1
1776066728.4829211,28,178,1
1776066728.484198,28,176,1
1776066728.4884837,28,180,1
1776066728.4884837,28,178,1
1776066728.4884837,28,178,1
1776066728.4884837,28,178,1
1776066728.4884837,28,176,1
1776066728.4884837,28,180,1
1776066728.4912837,28,178,1
1776066728.4912837,28,182,1
1776066728.4920816,28,186,1
1776066728.4920816,28,186,1
1776066728.4920816,28,188,1
1776066728.4933662,30,186,1
1776066728.4933662,28,188,1
1776066728.4939036,28,184,1
1776066728.4952378,28,184,1
1776066728.4956717,28,184,1
1776066728.4956717,28,180,1
1776066728.497172,28,184,1
1776066728.497172,28,186,1
1776066728.4980178,28,184,1
1776066728.4990954,28,190,1
1776066728.4990954,28,186,1
1776066728.4990954,28,184,1
1776066728.500037,28,182,1
1776066728.5046701,28,178,1
1776066728.5046701,28,180,1
1776066728.5046701,28,178,1
1776066728.5063136,26,180,1
1776066728.5063136,28,182,1
1776066728.5063136,28,178,1
1776066728.5073204,28,180,1
1776066728.5073204,28,176,1
1776066728.5080047,28,172,1
1776066728.5080047,28,172,1
1776066728.5080047,28,168,1
1776066728.508725,28,168,1
1776066728.508725,28,166,1
1776066728.5097134,28,170,1
1776066728.5102756,28,174,1
1776066728.5122154,28,174,1
1776066728.5127227,28,178,1
1776066728.5127227,28,176,1
1776066728.5127227,28,174,1
1776066728.5139117,28,176,1
1776066728.5139117,28,172,1
1776066728.5146463,26,174,1
1776066728.5146463,28,170,1
1776066728.5156536,28,172,1
1776066728.5156536,28,172,1
1776066728.516209,28,170,1
1776066728.5167181,28,174,1
1776066728.5217671,28,170,1
1776066728.5217671,28,168,1
1776066728.5217671,28,166,1
1776066728.5217671,30,164,1
1776066728.5217671,30,164,1
1776066728.5247998,30,164,1
1776066728.5247998,30,166,1
1776066728.5247998,30,168,1
1776066728.5247998,30,166,1
1776066728.5247998,30,170,1
1776066728.5247998,30,168,1
1776066728.5282211,30,168,1
1776066728.5282211,30,166,1
1776066728.5293329,32,166,1
1776066728.5293329,30,168,1
1776066728.5309258,32,164,1
1776066728.5309258,30,170,1
1776066728.5309258,32,172,1
1776066728.5324097,32,170,1
1776066728.5324097,32,176,1
1776066728.5380933,32,172,1
1776066728.5380933,32,170,1
1776066728.5380933,32,170,1
1776066728.5402515,32,168,1
1776066728.5413382,32,170,1
1776066728.5418649,32,166,1
1776066728.5426943,32,172,1
1776066728.5426943,32,172,1
1776066728.5447593,32,170,1
1776066728.5464823,32,176,1
1776066728.5464823,32,170,1
1776066728.5464823,32,170,1
1776066728.5464823,32,168,1
1776066728.5484984,32,164,1
1776066728.5484984,34,168,1
1776066728.5484984,32,168,1
1776066728.549418,32,170,1
1776066728.549418,32,174,1
1776066728.5543392,32,172,1
1776066728.5553486,30,170,1
1776066728.5553486,32,168,1
1776066728.5553486,30,164,1
1776066728.5553486,30,166,1
1776066728.5553486,32,164,1
1776066728.5553486,30,166,1
1776066728.5553486,32,164,1
1776066728.5553486,30,168,1
1776066728.5591562,32,170,1
1776066728.5591562,32,170,1
1776066728.5607157,32,174,1
1776066728.5612376,32,170,1
1776066728.5612376,30,168,1
1776066728.5612376,30,170,1
1776066728.5612376,30,166,1
1776066728.5612376,30,170,1
1776066728.5612376,30,168,1
1776066728.5612376,30,172,1
1776066728.5612376,30,176,1
1776066728.5612376,30,174,1
1776066728.5612376,30,176,1
1776066728.5655046,30,174,1
1776066728.5655046,30,172,1
1776066728.5701666,30,172,1
1776066728.5706747,30,170,1
1776066728.572691,30,174,1
1776066728.572691,30,172,1
1776066728.5733538,28,174,1
1776066728.5733538,28,178,1
1776066728.5733538,28,176,1
1776066728.5733538,26,178,1
1776066728.5733538,28,176,1
1776066728.5753703,26,176,1
1776066728.5753703,26,174,1
1776066728.5753703,26,172,1
1776066728.5753703,26,176,1
1776066728.5785484,26,172,1
1776066728.5785484,26,176,1
1776066728.5785484,26,174,1
1776066728.5785484,26,174,1
1776066728.5785484,26,178,1
1776066728.5785484,26,174,1
1776066728.5785484,26,172,1
1776066728.5785484,26,170,1
1776066728.5785484,26,166,1
1776066728.5785484,26,170,1
1776066728.5785484,26,168,1
1776066728.5785484,26,170,1
1776066728.5785484,26,172,1
1776066728.5785484,26,170,1
1776066728.5828984,26,174,1
1776066728.5828984,26,170,1
1776066728.5828984,26,170,1
1776066728.5842528,26,166,1
1776066728.5852685,26,164,1
1776066728.589856,26,168,1
1776066728.604828,26,164,1
1776066728.6388469,24,168,1
1776066728.6398115,24,172,1
1776066728.6398115,26,172,1
1776066728.6398115,26,174,1
1776066728.6398115,26,174,1
1776066728.6398115,26,174,1
1776066728.6398115,26,174,1
1776066728.6398115,26,174,1
1776066728.6398115,26,176,1
1776066728.6398115,26,176,1
1776066728.6398115,26,180,1
1776066728.6398115,26,182,1
1776066728.6398115,26,182,1
1776066728.6398115,26,184,1
1776066728.6444342,26,182,1
1776066728.6444342,24,180,1
1776066728.6463122,24,178,1
1776066728.6463122,24,176,1
1776066728.6463122,24,180,1
1776066728.6463122,24,178,1
1776066728.6463122,24,180,1
1776066728.6463122,24,178,1
1776066728.6463122,24,180,1
1776066728.6463122,24,180,1
1776066728.6502216,26,184,1
1776066728.6529965,26,186,1
1776066728.6763859,26,188,1
1776066728.6767552,26,192,1
1776066728.6767552,26,196,1
1776066728.6784372,26,194,1
1776066728.6789575,24,200,1
1776066728.6789575,24,202,1
1776066728.6789575,26,204,1
1776066728.6789575,26,208,1
1776066728.6821218,26,206,1
1776066728.68265,26,206,1
1776066728.68265,26,206,1
1776066728.68265,28,204,1
1776066728.68265,26,208,1
1776066728.68265,28,206,1
1776066728.686937,26,210,1
1776066728.6885889,26,210,1
1776066728.6899955,28,208,1
1776066728.6899955,28,212,1
1776066728.6899955,28,208,1
1776066728.6899955,30,206,1
1776066728.6899955,30,204,1
1776066728.691598,30,202,1
1776066728.691598,30,204,1
1776066728.691598,30,202,1
1776066728.691598,30,206,1
1776066728.6980941,28,210,1
1776066728.7082882,28,208,1
1776066728.7417774,28,212,1
1776066728.7417774,30,208,1
1776066728.7417774,28,208,1
1776066728.743855,30,208,1
1776066728.7443945,30,206,1
1776066728.746698,30,210,1
1776066728.74809,30,208,1
1776066728.749532,30,214,1
1776066728.7500083,30,218,1
1776066728.752648,30,216,1
1776066728.752648,30,220,1
1776066728.7546585,30,216,1
1776066728.7556722,30,216,1
1776066728.7571032,30,212,1
1776066728.7571032,30,210,1
1776066728.7571032,30,212,1
1776066728.7571032,30,208,1
1776066728.7584338,30,214,1
1776066728.7584338,30,214,1
1776066728.7584338,30,214,1
1776066728.7584338,30,218,1
1776066728.7584338,32,216,1
1776066728.7584338,32,214,1
1776066728.7584338,32,216,1
1776066728.7584338,32,214,1
1776066728.7584338,32,218,1
1776066728.7619836,32,216,1
1776066728.7631123,32,220,1
1776066728.7631123,32,222,1
1776066728.7631123,32,218,1
1776066728.7631123,32,222,1
1776066728.7631123,32,216,1
1776066728.7631123,34,218,1
1776066728.7656217,32,212,1
1776066728.7656217,34,212,1
1776066728.7718873,32,208,1
1776066728.841178,34,202,1
1776066728.841178,34,204,1
1776066728.844226,34,200,1
1776066728.844226,34,200,1
1776066728.8462074,34,204,1
1776066728.848734,34,198,1
1776066728.8504195,34,198,1
1776066728.8504195,34,198,1
1776066728.8504195,34,194,1
1776066728.8532667,34,198,1
1776066728.8620224,34,196,1
1776066728.8771482,32,198,1
1776066728.8771482,32,200,1
1776066728.8771482,32,198,1
1776066728.8790681,32,200,1
1776066728.8790681,32,196,1
1776066728.8796852,34,194,1
1776066728.8796852,34,196,1
1776066728.8796852,34,194,1
1776066728.8796852,34,198,1
1776066728.8796852,32,196,1
1776066728.8796852,32,200,1
1776066728.8796852,32,204,1
1776066728.8796852,30,202,1
1776066728.8796852,30,206,1
1776066728.8824494,30,202,1
1776066728.8837907,30,202,1
1776066728.8837907,30,200,1
1776066728.8837907,30,198,1
1776066728.8837907,30,202,1
1776066728.8858018,30,198,1
1776066728.8871853,28,202,1
1776066728.8877702,30,204,1
1776066728.889391,30,202,1
1776066728.889391,30,204,1
1776066728.889391,30,198,1
1776066728.889391,32,196,1
1776066728.889391,32,194,1
1776066728.889391,32,190,1
1776066728.889391,34,194,1
1776066728.889391,32,192,1
1776066728.889391,32,196,1
1776066728.889391,32,198,1
1776066728.889391,34,196,1
1776066728.889391,34,200,1
1776066728.889391,34,196,1
1776066728.889391,34,196,1
1776066728.889391,34,194,1
1776066728.889391,34,194,1
1776066728.889391,32,198,1
1776066728.8955886,32,194,1
1776066728.8955886,32,200,1
1776066728.8955886,32,202,1
1776066728.8955886,32,202,1
1776066728.8955886,32,204,1
1776066728.8955886,32,200,1
1776066728.8955886,32,198,1
1776066728.8955886,32,198,1
1776066728.8955886,32,196,1
1776066728.8955886,34,200,1
1776066728.8955886,32,198,1
1776066728.8955886,32,202,1
1776066728.8955886,32,202,1
1776066728.905712,32,202,1
1776066728.905712,32,204,1
1776066728.907881,32,200,1
1776066728.9083242,32,200,1
1776066728.9083242,32,198,1
1776066728.9083242,34,196,1
1776066728.9083242,32,200,1
1776066728.9083242,32,194,1
1776066728.9083242,32,200,1
1776066728.9083242,32,200,1
1776066728.9083242,32,198,1
1776066728.9083242,32,202,1
1776066728.9116461,34,196,1
1776066728.9127045,34,194,1
1776066728.913257,36,194,1
1776066728.913257,36,192,1
1776066728.913257,36,196,1
1776066728.913257,36,194,1
1776066728.913257,34,198,1
1776066728.913257,34,198,1
1776066728.913257,34,196,1
1776066728.9157867,34,198,1
1776066728.9157867,36,194,1
1776066728.9157867,36,192,1
1776066728.9157867,38,190,1
1776066728.9157867,38,188,1
1776066728.921265,38,194,1
1776066728.9220643,38,190,1
1776066728.9220643,38,196,1
1776066728.9220643,38,194,1
1776066728.9220643,38,194,1
1776066728.9220643,38,198,1
1776066728.9220643,38,196,1
1776066728.9220643,38,196,1
1776066728.9220643,38,194,1
1776066728.9220643,38,194,1
1776066728.925938,36,196,1
1776066728.9276018,36,194,1
1776066728.9276018,36,198,1
1776066728.9276018,34,200,1
1776066728.9276018,34,198,1
1776066728.9276018,34,200,1
1776066728.9295478,34,196,1
1776066728.9295478,34,196,1
1776066728.9295478,34,194,1
1776066728.9313693,34,194,1
1776066728.9313693,32,196,1
1776066728.9313693,32,194,1
1776066728.9313693,32,198,1
1776066728.9313693,32,198,1
1776066728.9313693,32,194,1
1776066728.9313693,32,198,1
1776066728.9345994,32,192,1
1776066728.9365292,34,190,1
1776066728.9385386,34,188,1
1776066728.9385386,34,184,1
1776066728.9394164,32,188,1
1776066728.9394164,32,184,1
1776066728.9394164,32,190,1
1776066728.9394164,32,190,1
1776066728.9394164,32,190,1
1776066728.9394164,32,192,1
1776066728.9394164,32,190,1
1776066728.9394164,32,190,1
1776066728.9394164,32,188,1
1776066728.9394164,30,188,1
1776066728.9394164,30,190,1
1776066728.9394164,30,186,1
1776066728.9394164,30,188,1
1776066728.944097,30,188,1
1776066728.944097,30,184,1
1776066728.945656,30,184,1
1776066728.945656,30,180,1
1776066728.945656,30,174,1
1776066728.945656,30,174,1
1776066728.945656,30,172,1
1776066728.945656,30,174,1
1776066728.945656,28,172,1
1776066728.945656,28,176,1
1776066728.945656,28,178,1
1776066728.945656,26,178,1
1776066728.9503145,26,182,1
1776066728.9503145,28,180,1
1776066728.9503145,28,180,1
1776066728.9503145,28,178,1
1776066728.9543793,28,180,1
1776066728.9543793,26,182,1
1776066728.9543793,26,180,1
1776066728.956796,26,184,1
1776066728.956796,24,182,1
1776066728.956796,24,182,1
1776066728.956796,24,184,1
1776066728.956796,24,180,1
1776066728.9585416,24,180,1
1776066728.9585416,24,176,1
1776066728.9585416,24,176,1
1776066728.9585416,24,178,1
1776066728.9585416,24,174,1
1776066728.9585416,24,178,1
1776066728.9585416,22,178,1
1776066728.9585416,24,176,1
1776066728.9585416,24,178,1
1776066728.9632194,24,174,1
1776066728.9635317,24,174,1
1776066728.9639862,26,172,1
1776066728.9639862,26,172,1
1776066728.9639862,28,174,1
1776066728.9654968,28,170,1
1776066728.9654968,28,176,1
1776066728.9671218,28,174,1
1776066728.9681275,28,172,1
1776066728.9705727,28,176,1
1776066728.9720612,28,170,1
1776066728.9723778,28,172,1
1776066728.9723778,28,172,1
1776066728.9723778,28,170,1
1776066728.9723778,28,176,1
1776066728.9723778,26,174,1
1776066728.9750757,26,178,1
1776066728.9755893,26,180,1
1776066728.9755893,28,176,1
1776066728.9755893,28,178,1
1776066728.9755893,28,174,1
1776066728.9755893,28,172,1
1776066728.9755893,28,170,1
1776066728.9755893,28,168,1
1776066728.9755893,28,170,1
1776066728.9755893,28,166,1
1776066728.9755893,28,172,1
1776066728.9755893,28,172,1
1776066728.9813495,28,172,1
1776066728.9813495,28,176,1
1776066728.9813495,28,174,1
1776066728.9813495,26,174,1
1776066728.9813495,26,174,1
1776066728.9813495,26,176,1
1776066728.9813495,28,178,1
1776066728.9813495,26,178,1
1776066728.9813495,28,182,1
1776066728.9895723,26,184,1
1776066728.9901464,28,184,1
1776066728.9901464,28,188,1
1776066728.9901464,28,182,1
1776066728.9901464,28,184,1
1776066728.9901464,28,180,1
1776066728.9901464,30,180,1
1776066728.9901464,30,182,1
1776066728.9901464,28,178,1
1776066728.9901464,28,182,1
1776066728.9901464,28,182,1
1776066728.9901464,28,178,1
1776066728.9971137,30,180,1
1776066728.9971137,30,176,1
1776066728.9971137,32,176,1
1776066728.9971137,32,174,1
1776066728.9986265,32,174,1
1776066728.9986265,32,174,1
1776066728.9986265,32,172,1
1776066728.9986265,32,178,1
1776066728.9986265,32,176,1
1776066728.9986265,32,176,1
1776066728.9986265,34,180,1
1776066729.0071828,34,176,1
1776066729.007568,34,176,1
1776066729.0091498,34,174,1
1776066729.010022,34,176,1
1776066729.010022,32,178,1
1776066729.0110493,32,178,1
1776066729.0110493,30,184,1
1776066729.0110493,30,182,1
1776066729.0110493,30,182,1
1776066729.0110493,30,184,1
1776066729.0110493,30,178,1
1776066729.0110493,30,178,1
1776066729.0110493,30,174,1
1776066729.0110493,30,172,1
1776066729.0155916,30,174,1
1776066729.0155916,30,172,1
1776066729.0155916,30,174,1
1776066729.0155916,28,174,1
1776066729.0180833,28,172,1
1776066729.0180833,28,174,1
1776066729.0206816,30,170,1
1776066729.0237033,30,170,1
1776066729.0237033,30,168,1
1776066729.0237033,30,168,1
1776066729.0257175,30,172,1
1776066729.0257175,28,170,1
1776066729.0257175,30,174,1
1776066729.0257175,28,176,1
1776066729.028949,30,176,1
1776066729.028949,30,178,1
1776066729.0301585,30,176,1
1776066729.0309029,30,176,1
1776066729.0309029,30,172,1
1776066729.0309029,30,172,1
1776066729.0319118,30,174,1
1776066729.0319118,30,172,1
1776066729.0319118,30,176,1
1776066729.0319118,30,176,1
1776066729.0319118,30,176,1
1776066729.0343964,30,178,1
1776066729.0376627,30,176,1
1776066729.0402145,30,176,1
1776066729.0427566,30,172,1
1776066729.0434358,30,172,1
1776066729.0439436,30,174,1
1776066729.0439436,30,172,1
1776066729.0439436,28,178,1
1776066729.0439436,28,178,1
1776066729.0454755,28,180,1
1776066729.0454755,28,184,1
1776066729.0454755,26,182,1
1776066729.0476363,26,184,1
1776066729.0476363,26,184,1
1776066729.0504951,26,186,1
1776066729.051004,26,190,1
1776066729.051004,24,190,1
1776066729.0548406,24,194,1
1776066729.0563748,24,196,1
1776066729.0563748,24,196,1
1776066729.0563748,24,198,1
1776066729.0563748,24,194,1
1776066729.0563748,24,196,1
1776066729.0563748,22,192,1
1776066729.0563748,22,192,1
1776066729.0563748,22,194,1
1776066729.0563748,22,192,1
1776066729.0563748,22,196,1
1776066729.0563748,22,192,1
1776066729.0563748,22,192,1
1776066729.0563748,22,190,1
1776066729.0563748,22,188,1
1776066729.0563748,24,186,1
1776066729.0563748,24,184,1
1776066729.062245,24,186,1
1776066729.062245,24,186,1
1776066729.062245,24,186,1
1776066729.0640717,24,190,1
1776066729.0640717,24,190,1
1776066729.0640717,24,190,1
1776066729.0640717,24,190,1
1776066729.0640717,24,188,1
1776066729.0655825,24,186,1
1776066729.0655825,24,184,1
1776066729.0655825,26,182,1
1776066729.0655825,26,182,1
1776066729.0676532,26,180,1
1776066729.07035,26,184,1
1776066729.071429,26,184,1
1776066729.071429,26,182,1
1776066729.071429,26,184,1
1776066729.071429,26,180,1
1776066729.071429,26,180,1
1776066729.0739107,26,176,1
1776066729.0743856,26,178,1
1776066729.0743856,26,178,1
1776066729.075398,26,178,1
1776066729.075398,26,182,1
1776066729.075398,26,180,1
1776066729.075398,26,182,1
1776066729.075398,26,184,1
1776066729.075398,26,182,1
1776066729.075398,26,182,1
1776066729.075398,26,178,1
1776066729.075398,26,180,1
1776066729.0791442,24,182,1
1776066729.1073687,24,180,1
1776066729.1094468,24,188,1
1776066729.1094468,24,184,1
1776066729.1110034,26,186,1
1776066729.1110034,26,186,1
1776066729.1110034,26,184,1
1776066729.114269,26,184,1
1776066729.114269,26,180,1
1776066729.114269,26,178,1
1776066729.115785,26,178,1
1776066729.12383,26,174,1
1776066729.124337,26,178,1
1776066729.124337,26,174,1
1776066729.124337,28,172,1
1776066729.361655,28,172,1
1776066729.4802134,28,168,1
1776066729.4970486,28,166,1
1776066729.5811858,28,162,1
1776066729.628078,28,162,1
1776066729.6579144,28,162,1
1776066729.6860125,28,160,1
1776066729.7176042,28,166,1
1776066729.730817,28,164,1
1776066729.7484612,28,164,1
1776066729.7595043,28,164,1
1776066729.772395,28,162,1
1776066729.7773046,28,164,1
1776066729.7805443,28,160,1
1776066729.7815442,28,164,1
1776066729.7872958,28,164,1
1776066729.7892997,28,164,1
1776066729.7903,28,168,1
1776066729.7903,28,166,1
1776066729.7913,28,168,1
1776066729.7913,28,168,1
1776066729.7922997,28,166,1
1776066729.7922997,28,166,1
1776066729.7922997,28,164,1
1776066729.7944992,28,168,1
1776066729.7944992,30,168,1
1776066729.7944992,28,170,1
1776066729.795506,28,174,1
1776066729.795506,28,174,1
1776066729.795506,28,176,1
1776066729.7965307,26,178,1
1776066729.7965307,26,176,1
1776066729.797535,26,176,1
1776066729.797535,26,174,1
1776066729.798535,26,176,1
1776066729.798535,26,176,1
1776066729.8004422,26,176,1
1776066729.802449,26,180,1
1776066729.8044574,26,176,1
1776066729.8047907,26,176,1
1776066729.805298,26,174,1
1776066729.805298,26,168,1
1776066729.805298,26,168,1
1776066729.8063173,26,164,1
1776066729.8063173,28,164,1
1776066729.8063173,26,164,1
1776066729.8073175,26,162,1
1776066729.8073175,26,166,1
1776066729.8073175,26,164,1
1776066729.808321,26,162,1
1776066729.808321,28,162,1
1776066729.808321,26,156,1
1776066729.8105886,28,156,1
1776066729.8109086,26,152,1
1776066729.8109086,28,152,1
1776066729.8119097,26,152,1
1776066729.8119097,26,150,1
1776066729.8119097,26,154,1
1776066729.8129096,26,150,1
1776066729.8129096,26,152,1
1776066729.8129096,28,152,1
1776066729.8139086,28,150,1
1776066729.8139086,28,150,1
1776066729.8139086,28,148,1
1776066729.8139086,28,148,1
1776066729.8154154,28,150,1
1776066729.8166025,28,150,1
1776066729.8183017,28,154,1
1776066729.819308,28,152,1
1776066729.819308,28,154,1
1776066729.820701,28,152,1
1776066729.8210313,26,150,1
1776066729.8220353,26,150,1
1776066729.8220353,26,146,1
1776066729.8220353,26,146,1
1776066729.8220353,28,148,1
1776066729.824083,26,146,1
1776066729.824083,28,152,1
1776066729.824083,28,148,1
1776066729.8259068,28,150,1
1776066729.8259068,28,148,1
1776066729.8269198,28,146,1
1776066729.8269198,28,146,1
1776066729.8269198,28,142,1
1776066729.827924,28,142,1
1776066729.827924,28,142,1
1776066729.8289244,28,140,1
1776066729.8289244,28,142,1
1776066729.829924,28,140,1
1776066729.8309064,28,138,1
1776066729.8318324,28,136,1
1776066729.8318324,28,132,1
1776066729.8328364,28,132,1
1776066729.835451,28,130,1
1776066729.8364787,28,130,1
1776066729.8381073,28,130,1
1776066729.8381073,28,128,1
1776066729.8381073,28,132,1
1776066729.8391078,28,130,1
1776066729.8391078,28,128,1
1776066729.840108,28,128,1
1776066729.840108,28,126,1
1776066729.8411086,28,126,1
1776066729.8411086,28,124,1
1776066729.8411086,28,126,1
1776066729.842108,28,128,1
1776066729.842108,26,128,1
1776066729.8441088,28,134,1
1776066729.8451247,28,132,1
1776066729.8451247,28,136,1
1776066729.8461883,28,136,1
1776066729.8461883,28,134,1
1776066729.8471792,28,136,1
1776066729.8471792,28,134,1
1776066729.8481839,28,136,1
1776066729.8481839,28,138,1
1776066729.8491838,28,138,1
1776066729.8491838,28,144,1
1776066729.853935,28,142,1
1776066729.853935,28,144,1
1776066729.8554437,30,144,1
1776066729.8554437,28,142,1
1776066729.8574667,30,142,1
1776066729.859466,28,140,1
1776066729.862181,28,140,1
1776066729.863185,28,142,1
1776066729.8641858,28,140,1
1776066729.865186,26,146,1
1776066729.865186,26,144,1
1776066729.869092,26,144,1
1776066729.8706555,26,144,1
1776066729.8706555,28,142,1
1776066729.8706555,28,142,1
1776066729.8716588,30,140,1
1776066729.8716588,30,140,1
1776066729.8726592,30,142,1
1776066729.8726592,32,140,1
1776066729.8726592,32,144,1
1776066729.873853,32,144,1
1776066729.873853,30,144,1
1776066729.8748572,32,144,1
1776066729.8769088,30,138,1
1776066729.8769088,32,140,1
1776066729.877908,32,136,1
1776066729.877908,32,140,1
1776066729.8789084,32,142,1
1776066729.8789084,32,144,1
1776066729.8789084,32,150,1
1776066729.8802974,32,150,1
1776066729.8802974,32,152,1
1776066729.8802974,32,150,1
1776066729.881316,32,150,1
1776066729.881316,34,150,1
1776066729.8859377,34,150,1
1776066729.887178,34,152,1
1776066729.887178,34,154,1
1776066729.8881788,32,158,1
1776066729.8881788,32,162,1
1776066729.889178,32,162,1
1776066729.889178,32,166,1
1776066729.889178,32,166,1
1776066729.8912272,32,164,1
1776066729.8912272,34,166,1
1776066729.8931243,34,164,1
1776066729.8931243,34,166,1
1776066729.8931243,34,168,1
1776066729.894129,34,168,1
1776066729.8951287,34,174,1
1776066729.8951287,34,174,1
1776066729.8961294,34,176,1
1776066729.8961294,34,178,1
1776066729.89713,34,174,1
1776066729.89713,32,174,1
1776066729.8981292,32,170,1
1776066729.9025462,32,172,1
1776066729.9035444,32,172,1
1776066729.9045446,32,170,1
1776066729.9045446,32,176,1
1776066729.9045446,32,174,1
1776066729.9055443,32,174,1
1776066729.9055443,32,174,1
1776066729.9055443,32,170,1
1776066729.9069085,32,170,1
1776066729.9069085,32,166,1
1776066729.9089606,32,168,1
1776066729.9089606,32,170,1
1776066729.9089606,32,170,1
1776066729.910184,32,176,1
1776066729.910184,32,174,1
1776066729.9111843,32,174,1
1776066729.9111843,32,172,1
1776066729.9121835,32,168,1
1776066729.9121835,34,168,1
1776066729.9131844,34,164,1
1776066729.9131844,32,166,1
1776066729.9141839,32,170,1
1776066729.9210842,32,170,1
1776066729.9210842,30,176,1
1776066729.923141,30,176,1
1776066729.923141,30,176,1
1776066729.923141,30,178,1
1776066729.9251487,30,176,1
1776066729.9251487,30,174,1
1776066729.926383,32,174,1
1776066729.926383,32,172,1
1776066729.926383,32,174,1
1776066729.927383,30,174,1
1776066729.927383,32,178,1
1776066729.9283826,30,176,1
1776066729.9283826,32,176,1
1776066729.929387,32,174,1
1776066729.929387,32,172,1
1776066729.9316678,32,174,1
1776066729.9326715,32,170,1
1776066729.936224,30,172,1
1776066729.936224,30,172,1
1776066729.936224,30,174,1
1776066729.9384432,30,178,1
1776066729.9384432,30,174,1
1776066729.9394474,30,174,1
1776066729.9394474,30,170,1
1776066729.9404483,30,164,1
1776066729.9404483,30,164,1
1776066729.9414477,30,160,1
1776066729.9414477,30,162,1
1776066729.942448,30,164,1
1776066729.942448,30,162,1
1776066729.9441414,30,168,1
1776066729.944459,30,166,1
1776066729.944459,30,166,1
1776066729.9457126,30,166,1
1776066729.9457126,30,160,1
1776066729.9467125,30,158,1
1776066729.9467125,30,154,1
1776066729.9477124,30,154,1
1776066729.948956,30,156,1
1776066729.9524531,30,156,1
1776066729.9524531,30,160,1
1776066729.9554856,30,158,1
1776066729.9554856,28,158,1
1776066729.9564905,30,156,1
1776066729.9564905,30,154,1
1776066729.9574907,32,152,1
1776066729.9574907,32,150,1
1776066729.95849,34,150,1
1776066729.95849,34,150,1
1776066729.9594922,34,150,1
1776066729.9594922,34,154,1
1776066729.9604897,34,152,1
1776066729.9622922,34,152,1
1776066729.9622922,34,150,1
1776066729.9632964,34,146,1
1776066729.9642956,36,146,1
1776066729.9642956,36,146,1
1776066729.9652963,36,148,1
1776066729.9652963,36,148,1
1776066729.9691863,34,148,1
1776066729.9709313,34,152,1
1776066729.971935,34,150,1
1776066729.972935,34,148,1
1776066729.973935,34,146,1
1776066729.973935,34,140,1
1776066729.973935,34,142,1
1776066729.9759414,34,136,1
1776066729.9780037,34,138,1
1776066729.979087,34,136,1
1776066729.9810908,32,138,1
1776066729.9857576,32,140,1
1776066729.9901168,32,138,1
1776066729.995168,32,138,1
1776066729.995168,32,136,1
1776066729.9971747,32,132,1
1776066729.9991822,32,132,1
1776066730.00262,34,128,1
1776066730.0036092,34,128,1
1776066730.0046089,36,128,1
1776066730.0046089,34,128,1
1776066730.0046089,36,130,1
1776066730.0066662,34,128,1
1776066730.0066662,34,128,1
1776066730.0086749,36,128,1
1776066730.0094192,36,126,1
1776066730.010423,36,126,1
1776066730.010423,36,124,1
1776066730.0114226,38,126,1
1776066730.0124226,38,128,1
1776066730.0134249,38,130,1
1776066730.0134249,38,136,1
1776066730.0171916,36,134,1
1776066730.0232146,36,134,1
1776066730.0252213,38,134,1
1776066730.0252213,36,130,1
1776066730.0272284,38,130,1
1776066730.0272284,36,128,1
1776066730.029919,36,128,1
1776066730.0309224,36,126,1
1776066730.0309224,36,128,1
1776066730.0319223,36,130,1
1776066730.0319223,36,128,1
1776066730.0388188,36,130,1
1776066730.0388188,36,128,1
1776066730.0398228,36,126,1
1776066730.0398228,38,128,1
1776066730.0408223,38,126,1
1776066730.0418222,36,130,1
1776066730.0418222,36,128,1
1776066730.0428221,34,132,1
1776066730.0461743,34,132,1
1776066730.0461743,32,134,1
1776066730.0481813,32,134,1
1776066730.0481813,32,136,1
1776066730.0481813,32,134,1
1776066730.052482,32,134,1
1776066730.053668,32,134,1
1776066730.0546718,32,136,1
1776066730.0556724,32,134,1
1776066730.0556724,32,136,1
1776066730.056672,32,140,1
1776066730.056672,32,138,1
1776066730.057672,32,140,1
1776066730.057672,32,138,1
1776066730.058672,32,138,1
1776066730.0603747,32,138,1
1776066730.0603747,32,136,1
1776066730.0613782,32,138,1
1776066730.0613782,32,138,1
